#  k  (h/Mpc)          P(k)  (Mpc/h)^3     P_linear(k) (Mpc/h)^3
     0.00783031         1939.21          1947.5 
       0.013688         2387.04         2395.71 
       0.019231         2408.63         2413.82 
      0.0249154         2208.64         2219.21 
      0.0312784         1909.59         1909.99 
      0.0375637         1623.01          1619.5 
      0.0433917         1404.53         1407.91 
      0.0492413         1261.78         1256.93 
      0.0555754         1138.42          1146.6 
      0.0619321         1073.89         1065.46 
       0.067871         990.144         994.813 
      0.0738098         913.342         916.783 
      0.0800417         820.531         824.816 
      0.0862327         731.314         729.986 
      0.0921407         649.115         645.791 
      0.0982031         574.933         573.599 
       0.104506         525.774         517.344 
       0.110769         487.507         478.913 
       0.116806         458.056         453.526 
       0.122832         440.021          433.56 
       0.129052         415.652         412.896 
       0.135211          392.51         388.862 
       0.141259         367.679         361.274 
       0.147318         340.347         331.552 
       0.153489         309.653         302.186 
       0.159709          284.86         276.364 
       0.165845         268.231         256.137 
       0.171974          249.95          241.17 
       0.178125         240.007         230.231 
       0.184229         231.982         221.616 
        0.19034         220.324         213.412 
       0.196428         213.995          204.36 
       0.202534         205.291         193.924 
       0.208729          192.76         182.281 
       0.214876         180.234         170.544 
       0.220989          171.26         159.644 
       0.227147         160.326         150.155 
        0.23329         152.768         142.447 
       0.239377          147.71         136.374 
       0.245482         140.236          131.38 
       0.251667         137.764          126.85 
       0.257832         133.418         122.333 
       0.263955         128.206         117.541 
       0.270079          123.24         112.399 
        0.27624         119.301         107.043 
       0.282372         113.967         101.821 
        0.28843         108.878         97.0312 
       0.294538         104.579         92.7527 
       0.300721         101.722          89.024 
        0.30691         97.1228         85.8094 
       0.313033         94.5797         82.9765 
       0.319153         90.5429         80.3067 
       0.325316         89.0595         77.6367 
        0.33145         85.9265         74.9233 
       0.337538         83.6164         72.1773 
       0.343633         80.5667         69.4364 
       0.349808         78.1639         66.7521 
       0.355968         75.7773         64.2481 
       0.362074         73.2973         61.9756 
       0.368217         71.2928         59.9092 
       0.374374         69.2219         58.0204 
       0.380519         67.5063         56.2652 
       0.386598         65.8441         54.6045 
       0.392688         64.3832         52.9706 
        0.39888         62.6899          51.324 
       0.405048         61.0905         49.7005 
       0.411186         59.6606         48.1167 
       0.417313          57.741         46.5954 
       0.423458         56.2824         45.1492 
       0.429607          54.818         43.7895 
       0.435692         53.0966         42.5321 
       0.441815         52.3124         41.3429 
       0.447964         51.4651         40.2064 
       0.454126         49.4502         39.1098 
       0.460267         48.6859         38.0485 
       0.466387         47.3578         37.0134 
        0.47254         46.6576         35.9953 
       0.478662         45.8609         35.0116 
       0.484765         44.4483         34.0663 
       0.490885         43.5017         33.1572 
       0.497035         42.9728         32.2842 
       0.503198         41.8586         31.4511 
       0.509342         40.7502         30.6584 
       0.515458         40.0659            29.9 
       0.521598         39.3908         29.1635 
       0.527764         38.5798         28.4454 
       0.533884         37.9563         27.7533 
           0.54         37.1449         27.0814 
       0.546137         36.5839         26.4267 
       0.552299         36.0321         25.7899 
       0.558452         34.9283         25.1759 
       0.564573         34.4163         24.5878 
       0.570708         33.9256         24.0204 
       0.576825         33.0804          23.475 
       0.582926         32.5167         22.9489 
       0.589034         31.7189          22.438 
       0.595184         31.3147         21.9383 
       0.601379         30.7572         21.4494 
       0.607522         30.2095         20.9789 
       0.613639          29.931         20.5243 
       0.619772          29.125         20.0821 
       0.625918          29.029         19.6523 
       0.632068         28.5261         19.2352 
       0.638161         27.9728         18.8342 
         0.6443         27.4456         18.4421 
       0.650464          26.985         18.0602 
       0.656582         26.7556         17.6921 
       0.662703         26.2827         17.3344 
       0.668861         25.8191         16.9847 
       0.675024           25.39         16.6445 
       0.681124         24.9477         16.3169 
       0.687237         24.5723         15.9975 
       0.693381          24.364         15.6851 
       0.699536         23.7313         15.3804 
       0.705665         23.6389         15.0852 
       0.711789         23.1714         14.7981 
       0.717957         22.8722         14.5165 
        0.72409         22.5195          14.244 
       0.730186         22.2064         13.9803 
       0.736317         21.9915         13.7219 
       0.742472         21.6113         13.4692 
       0.748622         21.3881         13.2232 
        0.75476         21.0201         12.9839 
       0.760888         20.7446         12.7509 
       0.767043          20.515         12.5228 
       0.773185         20.1427         12.3008 
       0.779291         20.0425         12.0855 
       0.785407         19.7553         11.8751 
       0.791564         19.4321         11.6683 
       0.797719         19.0293         11.4667 
       0.803834         18.9944         11.2711 
       0.809972          18.816         11.0794 
       0.816124         18.4047         10.8918 
       0.822261         18.2299         10.7091 
       0.828378          17.997         10.5312 
       0.834502         17.8673         10.3572 
       0.840667          17.595          10.186 
       0.846816         17.3025         10.0192 
       0.852925         17.1435         9.85722 
       0.859047         16.9541         9.69852 
       0.865192         16.8189         9.54282 
       0.871341         16.6689         9.39046 
       0.877463         16.3645         9.24214 
       0.883569         16.1583         9.09743 
       0.889708         15.9317          8.9551 
       0.895864         15.8202         8.81547 
       0.902008          15.681         8.67914 
       0.908149         15.5132         8.54579 
       0.914301          15.383         8.41504 
       0.920448         15.1229         8.28718 
       0.926574         14.9622         8.16244 
       0.932687         14.8181         8.04055 
       0.938823          14.643         7.92073 
       0.944975          14.465          7.8031 
       0.951105         14.3313         7.68829 
       0.957225         14.2156         7.57601 
       0.963368          14.075         7.46561 
       0.969511         13.9179         7.35741 
       0.975621         13.7965         7.25195 
       0.981748          13.632         7.14831 
       0.987916         13.5443         7.04605 
        0.99406         13.3273         6.94618 
        1.00019         13.1512         6.84847 
        1.00632         13.1348         6.75273 
        1.01246         12.9841          6.6587 
        1.01859         12.8011         6.56662 
        1.02471         12.7222          6.4764 
        1.03085         12.5941         6.38759 
        1.03698         12.4149         6.30064 
        1.04314         12.3511         6.21495 
        1.04929         12.1897         6.13106 
        1.05541         12.0655         6.04907 
        1.06154         11.9669         5.96839 
        1.06769         11.9026         5.88906 
        1.07382          11.728         5.81144 
        1.07993         11.6415         5.73541 
        1.08607         11.5472         5.66043 
        1.09222         11.4445         5.58672 
        1.09836         11.3253         5.51441 
        1.10449         11.2266         5.44348 
        1.11063         11.1188         5.37372 
        1.11677         11.0662         5.30521 
         1.1229         10.9773         5.23803 
        1.12903          10.836         5.17195 
        1.13518           10.71         5.10697 
        1.14131         10.6377         5.04315 
        1.14745         10.5382         4.98046 
        1.15359         10.4835         4.91883 
        1.15973         10.3786         4.85822 
        1.16584         10.2283         4.79891 
        1.17197         10.1662         4.74052 
        1.17811         10.1105         4.68292 
        1.18424         10.0343         4.62645 
        1.19038         9.96962         4.57075 
        1.19652         9.87031         4.51599 
        1.20267          9.7623         4.46214 
        1.20881         9.75415         4.40918 
        1.21495         9.65522         4.35716 
        1.22108         9.54179           4.306 
         1.2272         9.48119         4.25578 
        1.23334         9.38879         4.20625 
        1.23949         9.28959         4.15739 
        1.24562         9.25409         4.10945 
        1.25174         9.18208         4.06234 
        1.25789          9.1189         4.01584 
        1.26402         9.05934         3.97014 
        1.27014          8.9858         3.92528 
        1.27628         8.87971         3.88097 
        1.28244         8.80534         3.83727 
        1.28858          8.7909          3.7943 
        1.29471         8.68434          3.7521 
        1.30084         8.60849         3.71057 
        1.30697         8.60619         3.66962 
        1.31312         8.47116         3.62922 
        1.31925         8.41799         3.58957 
        1.32537         8.37725         3.55055 
        1.33151         8.33364         3.51197 
        1.33765         8.24055         3.47399 
        1.34378         8.18746         3.43665 
        1.34992         8.14182         3.39983 
        1.35606         8.07826         3.36347 
         1.3622         8.02769         3.32771 
        1.36833         7.95246         3.29256 
        1.37445         7.91394         3.25794 
        1.38059         7.87815         3.22371 
        1.38675         7.82241         3.18989 
        1.39288          7.7688         3.15669 
        1.39901         7.68707         3.12398 
        1.40515         7.65221         3.09167 
         1.4113         7.61181         3.05982 
        1.41742         7.55522         3.02855 
        1.42355         7.48629         2.99765 
         1.4297         7.45595          2.9671 
        1.43585         7.41451         2.93699 
        1.44198         7.39405         2.90741 
        1.44809         7.32229         2.87829 
        1.45423         7.26055         2.84947 
        1.46036         7.21746          2.8211 
        1.46649          7.1792          2.7931 
        1.47263         7.13156         2.76547 
        1.47877         7.08689         2.73822 
        1.48491         7.04587          2.7113 
        1.49104         7.00696         2.68479 
        1.49718         6.97154         2.65862 
        1.50333         6.93657         2.63276 
        1.50947         6.87688          2.6073 
         1.5156         6.85495         2.58221 
        1.52172         6.81856         2.55746 
        1.52787         6.77316         2.53297 
          1.534         6.72659         2.50884 
        1.54013         6.71705         2.48505 
        1.54627         6.65249         2.46153 
        1.55241         6.63555         2.43831 
        1.55855          6.5971         2.41542 
        1.56467          6.5654         2.39288 
         1.5708         6.52443         2.37058 
        1.57695         6.47772         2.34852 
        1.58308          6.4501          2.3268 
        1.58922         6.42988         2.30534 
        1.59535         6.41778         2.28416 
         1.6015         6.36103         2.26321 
        1.60764         6.33243         2.24254 
        1.61376         6.30433         2.22219 
        1.61989         6.29732         2.20207 
        1.62604         6.25022         2.18215 
        1.63218         6.25903          2.1625 
        1.63831         6.20973         2.14314 
        1.64444         6.18628           2.124 
        1.65059         6.14791         2.10506 
        1.65673          6.1493         2.08636 
        1.66285         6.09459         2.06795 
        1.66898          6.0725         2.04975 
        1.67512         6.06334         2.03174 
        1.68127         6.04076         2.01393 
         1.6874         6.02659         1.99637 
        1.69353         5.99309         1.97903 
        1.69967         5.98256         1.96186 
        1.70581         5.96406         1.94489 
        1.71193         5.94425          1.9282 
        1.71806         5.93292         1.91166 
        1.72421         5.91217         1.89529 
        1.73035         5.90855         1.87912 
        1.73649         5.89064         1.86315 
        1.74262         5.86552         1.84738 
        1.74876         5.86582         1.83178 
        1.75489         5.84999         1.81639 
        1.76101         5.82323         1.80118 
        1.76715           5.825         1.78613 
        1.77329         5.80501         1.77123 
        1.77943         5.77116          1.7565 
        1.78557         5.78719         1.74196 
        1.79171         5.77241         1.72757 
        1.79785         5.76751         1.71335 
        1.80399         5.76137          1.6993 
        1.81012         5.75393         1.68541 
        1.81625         5.74848          1.6717 
        1.82239         5.73769         1.65811 
        1.82853         5.74423         1.64468 
        1.83466          5.7337         1.63141 
        1.84078         5.71945         1.61831 
        1.84692         5.73202         1.60533 
        1.85306         5.72701         1.59247 
         1.8592         5.71349         1.57978 
        1.86533         5.71483         1.56723 
        1.87147         5.72489          1.5548 
        1.87761         5.70564          1.5425 
        1.88375           5.716         1.53036 
        1.88988         5.71494         1.51835 
        1.89601         5.71892         1.50647 
        1.90215         5.70661          1.4947 
        1.90829          5.7251         1.48307 
        1.91442          5.7359         1.47156 
        1.92056         5.74393         1.46018 
         1.9267         5.74299         1.44891 
        1.93284         5.74684         1.43775 
        1.93897         5.75212         1.42673 
        1.94509         5.76307         1.41586 
        1.95123         5.76111         1.40506 
        1.95737         5.76554         1.39437 
        1.96349         5.78528         1.38383 
        1.96964         5.80642         1.37335 
        1.97578         5.80245         1.36299 
        1.98192         5.80388         1.35275 
        1.98805         5.84619         1.34262 
        1.99419         5.82491         1.33259 
        2.00033         5.85792         1.32265 
        2.00647         5.87216         1.31283 
         2.0126           5.892         1.30311 
        2.01874         5.89415         1.29349 
        2.02488         5.93784         1.28395 
        2.03101         5.93579         1.27452 
        2.03714         5.94279          1.2652 
        2.04328         5.97198         1.25596 
        2.04941         5.99894         1.24682 
        2.05554         6.00192         1.23778 
        2.06167         6.03765         1.22882 
        2.06781         6.06344         1.21995 
        2.07396         6.06552         1.21115 
        2.08009         6.11338         1.20245 
        2.08622         6.13099         1.19385 
        2.09237         6.14414         1.18531 
        2.09851         6.17635         1.17686 
        2.10464          6.1995          1.1685 
        2.11077         6.23875         1.16024 
        2.11691         6.26301         1.15203 
        2.12305         6.29876         1.14391 
        2.12918         6.31629         1.13588 
        2.13531         6.34176         1.12793 
        2.14145         6.37028         1.12004 
         2.1476         6.41673         1.11221 
        2.15372         6.42226          1.1045 
        2.15985         6.46456         1.09686 
        2.16599         6.50689         1.08926 
        2.17213            6.52         1.08174 
        2.17827         6.56943          1.0743 
         2.1844         6.60437         1.06693 
        2.19054         6.65239         1.05963 
        2.19666         6.67664         1.05241 
         2.2028         6.69503         1.04525 
        2.20893          6.7392         1.03816 
        2.21508         6.76229         1.03112 
        2.22122          6.8266         1.02414 
        2.22736         6.87154         1.01725 
        2.23349          6.9178         1.01041 
        2.23962         6.95235         1.00364 
        2.24577         6.98206        0.996926 
         2.2519          7.0094        0.990281 
        2.25802          7.0683        0.983708 
        2.26417         7.10118        0.977176 
        2.27031         7.14904        0.970697 
        2.27644         7.18607        0.964296 
        2.28257         7.22213        0.957953 
        2.28872         7.28617        0.951656 
        2.29486         7.31788        0.945416 
        2.30099         7.36885        0.939246 
        2.30712          7.4134        0.933127 
        2.31326         7.46047        0.927053 
         2.3194         7.48994        0.921037 
        2.32553          7.5214        0.915084 
        2.33166         7.61455        0.909187 
         2.3378         7.62467        0.903333 
        2.34394         7.67738         0.89753 
        2.35007         7.71534        0.891785 
        2.35619         7.77271        0.886098 
        2.36233         7.82022        0.880447 
        2.36848         7.87553        0.874833 
        2.37462         7.92947        0.869281 
        2.38075         7.99896        0.863782 
        2.38689         8.05074        0.858326 
        2.39303         8.07193        0.852918 
        2.39916          8.1564        0.847562 
        2.40529         8.16996        0.842252 
        2.41143         8.23251        0.836984 
        2.41757           8.298        0.831759 
         2.4237         8.33736        0.826588 
        2.42983         8.34475        0.821462 
        2.43598         8.41848        0.816365 
        2.44211         8.50191         0.81132 
        2.44823         8.50949        0.806329 
        2.45437         8.57675        0.801367 
        2.46052          8.6264        0.796442 
        2.46665         8.66785        0.791567 
        2.47279         8.71484        0.786735 
        2.47892         8.74914        0.781939 
        2.48507          8.8129         0.77718 
         2.4912          8.8724        0.772469 
