# k  (h/Mpc)    Pcb(k)  (Mpc/h)^3    Pcb_linear(k)  (Mpc/h)^3
     0.00783031           17772         17929.9 
       0.013688         22162.9         22030.5 
       0.019231         22144.6           22183 
      0.0249154         19944.2         20385.9 
      0.0312784         17308.9         17539.6 
      0.0375637         14801.5         14868.8 
      0.0433917         12623.7         12924.3 
      0.0492413         11421.3         11537.1 
      0.0555754         10107.7         10523.5 
      0.0619321         9740.19         9778.05 
       0.067871         8788.75         9129.25 
      0.0738098         8109.33         8412.84 
      0.0800417         7222.11         7568.65 
      0.0862327         6516.33         6698.28 
      0.0921407         5895.92         5925.58 
      0.0982031          5225.3         5263.07 
       0.104506         4900.41         4746.81 
       0.110769          4544.4         4394.14 
       0.116806         4284.27         4161.15 
       0.122832         4080.27         3977.92 
       0.129052         3798.26         3788.29 
       0.135211         3604.53         3567.75 
       0.141259         3440.53         3314.62 
       0.147318         3232.21          3041.9 
       0.153489         2948.48         2772.46 
       0.159709          2774.8         2535.54 
       0.165845         2672.91         2349.95 
       0.171974         2527.67         2212.63 
       0.178125         2409.79         2112.26 
       0.184229         2313.06         2033.22 
        0.19034         2198.28         1957.94 
       0.196428         2151.14         1874.89 
       0.202534         2065.64         1779.14 
       0.208729         1974.94         1672.32 
       0.214876         1893.43         1564.63 
       0.220989          1828.5         1464.63 
       0.227147         1755.16         1377.57 
        0.23329          1683.7         1306.85 
       0.239377         1659.25         1251.13 
       0.245482         1558.58         1205.32 
       0.251667         1553.97         1163.76 
       0.257832         1496.96         1122.32 
       0.263955         1446.29         1078.35 
       0.270079         1397.35         1031.18 
        0.27624         1380.95          982.04 
       0.282372         1324.43         934.128 
        0.28843         1319.31         890.187 
       0.294538         1254.71         850.934 
       0.300721          1245.6         816.726 
        0.30691         1201.53         787.233 
       0.313033         1178.57         761.244 
       0.319153         1157.38          736.75 
       0.325316         1121.59         712.255 
        0.33145          1097.5         687.361 
       0.337538         1078.56         662.168 
       0.343633         1055.83         637.022 
       0.349808         1021.01         612.396 
       0.355968         1013.28         589.423 
       0.362074         1004.25         568.574 
       0.368217          972.67         549.616 
       0.374374         938.485         532.289 
       0.380519         939.674         516.185 
       0.386598         913.395          500.95 
       0.392688         910.113         485.961 
        0.39888          883.68         470.854 
       0.405048         874.703         455.959 
       0.411186         862.753          441.43 
       0.417313         843.062         427.473 
       0.423458         829.644         414.205 
       0.429607         819.071         401.731 
       0.435692         803.052         390.195 
       0.441815         796.578         379.285 
       0.447964         779.595         368.858 
       0.454126         774.003         358.798 
       0.460267         754.499         349.061 
       0.466387         745.133         339.565 
        0.47254         741.376         330.225 
       0.478662         732.473         321.201 
       0.484765         712.064         312.528 
       0.490885         707.686         304.188 
       0.497035         692.478         296.179 
       0.503198          688.58         288.536 
       0.509342         681.201         281.263 
       0.515458         677.316         274.306 
       0.521598         660.413         267.549 
       0.527764         648.894         260.961 
       0.533884         646.927         254.611 
           0.54         640.045         248.448 
       0.546137          634.06         242.441 
       0.552299         626.452         236.599 
       0.558452         620.781         230.966 
       0.564573         613.441          225.57 
       0.570708         605.716         220.365 
       0.576825           589.9         215.362 
       0.582926         591.904         210.535 
       0.589034         586.649         205.848 
       0.595184         581.254         201.264 
       0.601379         573.207         196.779 
       0.607522         564.083         192.463 
       0.613639         563.913         188.292 
       0.619772         551.532         184.235 
       0.625918         548.503         180.292 
       0.632068         541.225         176.465 
       0.638161         538.638         172.786 
         0.6443         529.656         169.189 
       0.650464         527.468         165.685 
       0.656582         522.708         162.309 
       0.662703         520.658         159.027 
       0.668861         511.985         155.819 
       0.675024         507.627         152.698 
       0.681124         503.755         149.693 
       0.687237         499.711         146.762 
       0.693381          493.46         143.896 
       0.699536         484.497         141.101 
       0.705665         483.629         138.393 
       0.711789         481.314         135.759 
       0.717957         476.472         133.176 
        0.72409          473.86         130.676 
       0.730186         466.737         128.256 
       0.736317         463.026         125.886 
       0.742472         461.015         123.567 
       0.748622         455.751          121.31 
        0.75476         448.879         119.115 
       0.760888         444.899         116.978 
       0.767043         444.251         114.885 
       0.773185         439.828         112.849 
       0.779291         434.736         110.873 
       0.785407          432.12         108.943 
       0.791564         426.901         107.046 
       0.797719          425.14         105.196 
       0.803834         420.185         103.402 
       0.809972         418.069         101.644 
       0.816124         417.066         99.9225 
       0.822261         411.225         98.2463 
       0.828378         409.274         96.6138 
       0.834502         404.155         95.0174 
       0.840667         400.513          93.447 
       0.846816         398.594         91.9168 
       0.852925         395.564         90.4309 
       0.859047         392.904         88.9749 
       0.865192         388.351         87.5465 
       0.871341         384.905         86.1487 
       0.877463         383.888         84.7881 
       0.883569         380.116         83.4605 
       0.889708         377.608         82.1547 
       0.895864         376.179         80.8738 
       0.902008         372.113          79.623 
       0.908149         367.374         78.3996 
       0.914301         365.133         77.2002 
       0.920448         363.066         76.0271 
       0.926574         357.209         74.8828 
       0.932687         357.062         73.7645 
       0.938823         353.662         72.6653 
       0.944975         352.421         71.5861 
       0.951105         348.294         70.5329 
       0.957225         346.259         69.5028 
       0.963368         342.303         68.4899 
       0.969511         341.232         67.4974 
       0.975621         338.094         66.5299 
       0.981748         336.664          65.579 
       0.987916         334.691         64.6409 
        0.99406         328.816         63.7247 
        1.00019         327.176         62.8283 
        1.00632          325.56           61.95 
        1.01246         322.756         61.0873 
        1.01859         322.726         60.2425 
        1.02471         317.637         59.4149 
        1.03085         316.664         58.6001 
        1.03698         314.624         57.8024 
        1.04314         311.222         57.0163 
        1.04929         308.018         56.2467 
        1.05541         308.547         55.4945 
        1.06154         303.299         54.7543 
        1.06769         302.151         54.0266 
        1.07382          299.86         53.3145 
        1.07993         297.858          52.617 
        1.08607         296.545         51.9291 
        1.09222         293.871         51.2529 
        1.09836         291.677         50.5895 
        1.10449         289.176         49.9388 
        1.11063         285.594         49.2988 
        1.11677         285.659         48.6703 
         1.1229         283.377          48.054 
        1.12903          280.87         47.4478 
        1.13518         278.384         46.8517 
        1.14131         276.627         46.2662 
        1.14745         275.005          45.691 
        1.15359         273.023         45.1256 
        1.15973         271.645         44.5696 
        1.16584         268.654         44.0255 
        1.17197         268.829         43.4898 
        1.17811          264.82         42.9614 
        1.18424         263.277         42.4433 
        1.19038         262.287         41.9323 
        1.19652         259.589           41.43 
        1.20267          258.56         40.9359 
        1.20881         256.661           40.45 
        1.21495         254.353         39.9728 
        1.22108         252.712         39.5035 
         1.2272         250.953         39.0427 
        1.23334         249.325         38.5883 
        1.23949         247.106         38.1401 
        1.24562         246.233         37.7004 
        1.25174         244.014         37.2682 
        1.25789         242.039         36.8415 
        1.26402         240.009         36.4223 
        1.27014         238.406         36.0107 
        1.27628         236.926         35.6043 
        1.28244         236.708         35.2033 
        1.28858          233.97         34.8092 
        1.29471         232.501         34.4219 
        1.30084         230.274          34.041 
        1.30697         229.139         33.6653 
        1.31312         226.805         33.2947 
        1.31925         225.527         32.9309 
        1.32537         224.563         32.5729 
        1.33151         222.836          32.219 
        1.33765         220.397         31.8706 
        1.34378         219.419          31.528 
        1.34992         218.239         31.1902 
        1.35606         217.176         30.8567 
         1.3622         215.256         30.5286 
        1.36833         213.442         30.2061 
        1.37445          212.34         29.8885 
        1.38059         210.226         29.5745 
        1.38675         209.114         29.2642 
        1.39288         207.899         28.9596 
        1.39901          206.96         28.6596 
        1.40515         205.045         28.3631 
         1.4113         203.791          28.071 
        1.41742         202.023         27.7841 
        1.42355         200.643         27.5006 
         1.4297         199.187         27.2203 
        1.43585         198.127         26.9441 
        1.44198         197.199         26.6727 
        1.44809         195.397         26.4056 
        1.45423         194.316         26.1412 
        1.46036         193.129         25.8809 
        1.46649         191.294         25.6241 
        1.47263           190.4         25.3706 
        1.47877         188.609         25.1206 
        1.48491         187.026         24.8736 
        1.49104         186.259         24.6304 
        1.49718         184.537         24.3904 
        1.50333         183.881         24.1531 
        1.50947         182.613         23.9195 
         1.5156         180.923         23.6894 
        1.52172          179.82         23.4622 
        1.52787         178.187         23.2376 
          1.534         177.916         23.0163 
        1.54013          176.24          22.798 
        1.54627         175.264         22.5822 
        1.55241         173.613         22.3691 
        1.55855         172.122         22.1592 
        1.56467         171.301         21.9525 
         1.5708         170.424         21.7478 
        1.57695         169.183         21.5455 
        1.58308         167.712         21.3462 
        1.58922         166.675         21.1493 
        1.59535         165.278          20.955 
         1.6015         165.009         20.7628 
        1.60764         163.284         20.5732 
        1.61376           162.8         20.3864 
        1.61989          161.31         20.2019 
        1.62604         159.835         20.0192 
        1.63218         159.479         19.8389 
        1.63831         158.005         19.6612 
        1.64444         156.973         19.4857 
        1.65059         155.993         19.3119 
        1.65673         154.963         19.1404 
        1.66285         153.624         18.9715 
        1.66898         152.795         18.8045 
        1.67512         152.012         18.6393 
        1.68127         150.319         18.4759 
         1.6874         149.686         18.3148 
        1.69353         148.639         18.1557 
        1.69967         147.377         17.9982 
        1.70581         146.636         17.8426 
        1.71193         145.664         17.6894 
        1.71806         144.911         17.5377 
        1.72421         143.593         17.3875 
        1.73035         142.966         17.2392 
        1.73649         142.033         17.0926 
        1.74262          141.06         16.9479 
        1.74876         140.054         16.8048 
        1.75489         138.945         16.6637 
        1.76101         137.571         16.5242 
        1.76715         137.257         16.3861 
        1.77329         136.145         16.2494 
        1.77943         135.473         16.1142 
        1.78557         134.546         15.9808 
        1.79171         133.768         15.8489 
        1.79785         132.545         15.7184 
        1.80399         131.676         15.5894 
        1.81012         130.975         15.4621 
        1.81625         130.441         15.3362 
        1.82239         129.375         15.2116 
        1.82853         128.604         15.0884 
        1.83466         127.696         14.9667 
        1.84078         127.097         14.8464 
        1.84692         125.538         14.7273 
        1.85306         125.173         14.6094 
         1.8592         124.188          14.493 
        1.86533         123.656         14.3778 
        1.87147         122.626         14.2638 
        1.87761         121.619          14.151 
        1.88375         120.812         14.0396 
        1.88988         119.948         13.9294 
        1.89601         119.356         13.8204 
        1.90215         118.695         13.7125 
        1.90829         117.612         13.6058 
        1.91442         117.016         13.5001 
        1.92056         116.363         13.3958 
         1.9267         115.528         13.2924 
        1.93284         114.517           13.19 
        1.93897         114.063         13.0889 
        1.94509         113.367         12.9891 
        1.95123         112.617         12.8901 
        1.95737         111.966         12.7921 
        1.96349         111.212         12.6953 
        1.96964         110.269         12.5992 
        1.97578         109.689         12.5041 
        1.98192         108.958         12.4102 
        1.98805         108.166         12.3172 
        1.99419         107.474         12.2252 
        2.00033          106.99         12.1341 
        2.00647         106.308         12.0439 
         2.0126         105.461         11.9548 
        2.01874         104.791         11.8665 
        2.02488         104.206          11.779 
        2.03101         103.331         11.6925 
        2.03714         102.782          11.607 
        2.04328         101.983         11.5223 
        2.04941         101.452         11.4384 
        2.05554         100.577         11.3555 
        2.06167         100.196         11.2733 
        2.06781         99.4524         11.1918 
        2.07396         98.9153         11.1111 
        2.08009         98.3569         11.0313 
        2.08622          97.638         10.9524 
        2.09237         96.9836         10.8741 
        2.09851          96.517         10.7966 
        2.10464         95.8507         10.7199 
        2.11077          95.253         10.6441 
        2.11691         94.8649         10.5688 
        2.12305          94.036         10.4943 
        2.12918         93.4158         10.4206 
        2.13531         92.8109         10.3477 
        2.14145         92.2152         10.2753 
         2.1476         91.5117         10.2035 
        2.15372         91.1368         10.1328 
        2.15985         90.6381         10.0626 
        2.16599         89.9418         9.99292 
        2.17213         89.3736         9.92397 
        2.17827         88.8417         9.85569 
         2.1844         88.1236         9.78811 
        2.19054         87.6941         9.72114 
        2.19666          87.148         9.65489 
         2.2028         86.6508         9.58921 
        2.20893         86.1848          9.5241 
        2.21508         85.5108         9.45953 
        2.22122         84.8982         9.39553 
        2.22736         84.5464         9.33226 
        2.23349         84.1578         9.26959 
        2.23962         83.5184         9.20746 
        2.24577         82.9984         9.14585 
         2.2519         82.4621         9.08489 
        2.25802         81.8714         9.02458 
        2.26417         81.6268         8.96466 
        2.27031         80.8917         8.90522 
        2.27644         80.5023          8.8465 
        2.28257         79.8989         8.78831 
        2.28872         79.4846         8.73054 
        2.29486         79.0739          8.6733 
        2.30099         78.5195         8.61669 
        2.30712         78.1002         8.56056 
        2.31326         77.5303         8.50483 
         2.3194         77.1075         8.44964 
        2.32553         76.8012         8.39503 
        2.33166         76.1878         8.34092 
         2.3378         75.7758         8.28722 
        2.34394         75.2801         8.23398 
        2.35007         74.8202         8.18128 
        2.35619         74.4482          8.1291 
        2.36233         74.0097         8.07726 
        2.36848         73.5918         8.02576 
        2.37462         73.2742         7.97482 
        2.38075         72.5504         7.92438 
        2.38689         72.3478         7.87432 
        2.39303         71.8035         7.82471 
        2.39916         71.4161         7.77557 
        2.40529         71.1427         7.72686 
        2.41143         70.6995         7.67854 
        2.41757         70.2492          7.6306 
         2.4237         69.9775         7.58316 
        2.42983         69.4857         7.53613 
        2.43598         69.0063         7.48937 
        2.44211          68.799         7.44309 
        2.44823         68.4071          7.3973 
        2.45437         67.8505         7.35178 
        2.46052          67.488          7.3066 
        2.46665         67.2674         7.26187 
        2.47279         66.6821         7.21754 
        2.47892         66.4452         7.17355 
        2.48507         66.0422         7.12989 
         2.4912         65.6404         7.08667 
