# k  (h/Mpc)    P(k)  (Mpc/h)^3    P_linear(k)  (Mpc/h)^3
     0.00783031         7569.27         7581.28 
       0.013688         9371.39         9315.63 
       0.019231         9411.05         9383.64 
      0.0249154         8556.79         8625.55 
      0.0312784         7413.79         7422.79 
      0.0375637         6318.27         6293.36 
      0.0433917         5430.42         5470.85 
      0.0492413         4895.12         4883.97 
      0.0555754         4377.99         4455.14 
      0.0619321         4175.55         4139.75 
       0.067871         3810.19         3865.19 
      0.0738098          3513.6         3561.96 
      0.0800417         3143.16         3204.61 
      0.0862327         2817.13         2836.14 
      0.0921407         2520.81            2509 
      0.0982031         2229.23         2228.51 
       0.104506         2065.28         2009.93 
       0.110769         1914.43         1860.62 
       0.116806         1796.81         1761.97 
       0.122832         1722.59          1684.4 
       0.129052         1614.58         1604.11 
       0.135211         1529.19         1510.74 
       0.141259         1444.93         1403.55 
       0.147318         1345.45         1288.08 
       0.153489         1224.13         1173.99 
       0.159709         1140.16         1073.66 
       0.165845         1083.92         995.084 
       0.171974         1015.34         936.937 
       0.178125         972.631         894.438 
       0.184229         939.639         860.968 
        0.19034         883.867         829.091 
       0.196428         866.752         793.927 
       0.202534         835.298         753.379 
       0.208729         789.509         708.148 
       0.214876         743.345         662.549 
       0.220989         714.451         620.204 
       0.227147         675.114         583.339 
        0.23329         646.038         553.394 
       0.239377         631.101           529.8 
       0.245482         590.617         510.399 
       0.251667         586.276         492.801 
       0.257832         568.303         475.253 
       0.263955         547.526         456.635 
       0.270079         527.302         436.659 
        0.27624         518.872         415.851 
       0.282372         496.675         395.563 
        0.28843         482.169         376.956 
       0.294538         459.827         360.335 
       0.300721         454.754         345.849 
        0.30691         434.055         333.359 
       0.313033         425.944         322.354 
       0.319153         410.547         311.983 
       0.325316         400.106          301.61 
        0.33145         387.609         291.068 
       0.337538         383.088           280.4 
       0.343633         370.148         269.752 
       0.349808         358.163         259.323 
       0.355968         353.622         249.596 
       0.362074         344.819         240.768 
       0.368217         336.249          232.74 
       0.374374         324.224         225.402 
       0.380519         320.142         218.583 
       0.386598         312.428         212.132 
       0.392688         309.001         205.784 
        0.39888         300.862         199.387 
       0.405048         294.473          193.08 
       0.411186         288.284         186.928 
       0.417313         282.371         181.017 
       0.423458         277.782         175.399 
       0.429607         271.442         170.116 
       0.435692         263.625         165.232 
       0.441815         262.022         160.612 
       0.447964         257.195         156.197 
       0.454126         247.337         151.937 
       0.460267          244.83         147.813 
       0.466387         241.735         143.792 
        0.47254         236.524         139.837 
       0.478662         235.228         136.015 
       0.484765         228.086         132.343 
       0.490885         225.059         128.811 
       0.497035         222.126         125.419 
       0.503198         216.575         122.183 
       0.509342         214.332         119.104 
       0.515458         211.134         116.158 
       0.521598         208.143         113.296 
       0.527764         204.838         110.507 
       0.533884         202.217         107.818 
           0.54         199.055         105.208 
       0.546137          197.98         102.664 
       0.552299         194.263          100.19 
       0.558452         191.348         97.8051 
       0.564573         188.148         95.5198 
       0.570708           185.1          93.316 
       0.576825         182.666         91.1971 
       0.582926         179.974         89.1533 
       0.589034         177.752         87.1686 
       0.595184         175.848          85.227 
       0.601379         173.874         83.3281 
       0.607522         170.339         81.5002 
       0.613639         169.417         79.7339 
       0.619772         165.788         78.0162 
       0.625918         164.346         76.3465 
       0.632068         162.404          74.726 
       0.638161         161.114         73.1681 
         0.6443         158.813          71.645 
       0.650464         157.297         70.1612 
       0.656582         155.374         68.7313 
       0.662703         153.294         67.3417 
       0.668861         151.011         65.9833 
       0.675024         149.461         64.6614 
       0.681124         148.504          63.389 
       0.687237         145.896          62.148 
       0.693381         143.925         60.9342 
       0.699536         142.935         59.7507 
       0.705665         142.987         58.6038 
       0.711789         139.549         57.4884 
       0.717957          139.05         56.3947 
        0.72409         137.081          55.336 
       0.730186         134.993         54.3114 
       0.736317         134.392         53.3076 
       0.742472         133.405         52.3259 
       0.748622          132.06         51.3701 
        0.75476         130.888         50.4405 
       0.760888         129.095         49.5356 
       0.767043         128.103         48.6494 
       0.773185         126.716         47.7869 
       0.779291         125.182         46.9504 
       0.785407         124.313         46.1329 
       0.791564         123.196         45.3298 
       0.797719         121.312         44.5464 
       0.803834         120.871         43.7866 
       0.809972         119.265          43.042 
       0.816124         118.879         42.3132 
       0.822261         117.613         41.6034 
       0.828378         116.491         40.9121 
       0.834502         115.834         40.2361 
       0.840667         114.419         39.5711 
       0.846816         113.183         38.9231 
       0.852925         112.261         38.2939 
       0.859047         111.047         37.6773 
       0.865192         110.501         37.0725 
       0.871341         109.472         36.4806 
       0.877463         108.228         35.9044 
       0.883569         107.378         35.3422 
       0.889708         106.701         34.7893 
       0.895864         105.807         34.2468 
       0.902008         104.874         33.7172 
       0.908149         104.318         33.1991 
       0.914301         103.227         32.6912 
       0.920448         102.466         32.1945 
       0.926574         101.677         31.7099 
       0.932687         101.364         31.2364 
       0.938823         99.8566         30.7709 
       0.944975         98.9915         30.3139 
       0.951105         98.3379         29.8679 
       0.957225         97.2083         29.4317 
       0.963368          96.657         29.0028 
       0.969511         96.3309         28.5824 
       0.975621         95.7767         28.1728 
       0.981748         94.7638         27.7701 
       0.987916         94.1573         27.3728 
        0.99406         93.3727         26.9849 
        1.00019         92.5964         26.6053 
        1.00632         91.9134         26.2334 
        1.01246         91.2274          25.868 
        1.01859         90.1593         25.5103 
        1.02471         90.2799         25.1599 
        1.03085         89.2509         24.8148 
        1.03698         88.5541          24.477 
        1.04314         87.7695         24.1441 
        1.04929         87.2572         23.8183 
        1.05541         86.4591         23.4997 
        1.06154         86.1945         23.1863 
        1.06769         85.6453         22.8781 
        1.07382         85.2654         22.5766 
        1.07993         84.6825         22.2812 
        1.08607         83.8454         21.9899 
        1.09222         83.4906         21.7036 
        1.09836         82.7393         21.4227 
        1.10449         82.1779         21.1471 
        1.11063         81.7077         20.8761 
        1.11677         81.0912           20.61 
         1.1229         80.3954         20.3489 
        1.12903         79.5088         20.0923 
        1.13518         79.6166         19.8398 
        1.14131         79.1347         19.5919 
        1.14745         78.2591         19.3483 
        1.15359         77.9558         19.1089 
        1.15973         77.4366         18.8735 
        1.16584         76.8354         18.6431 
        1.17197         76.4071         18.4162 
        1.17811         75.9286         18.1924 
        1.18424         75.2189          17.973 
        1.19038         74.8817         17.7567 
        1.19652         74.5982         17.5439 
        1.20267         73.9568         17.3347 
        1.20881         73.6801          17.129 
        1.21495         73.0434         16.9269 
        1.22108         72.5562         16.7281 
         1.2272         71.8499          16.533 
        1.23334          71.698         16.3406 
        1.23949          71.228         16.1508 
        1.24562         70.9237         15.9646 
        1.25174         70.5624         15.7816 
        1.25789         70.1259         15.6009 
        1.26402         69.5456         15.4234 
        1.27014         68.9564         15.2491 
        1.27628         68.6735          15.077 
        1.28244         68.2959         14.9072 
        1.28858         67.9126         14.7403 
        1.29471         67.4892         14.5763 
        1.30084         67.1695          14.415 
        1.30697         66.7033         14.2559 
        1.31312         66.3256          14.099 
        1.31925         66.1653         13.9449 
        1.32537         65.7366         13.7933 
        1.33151         65.2455         13.6435 
        1.33765         64.8636         13.4959 
        1.34378         64.3728         13.3508 
        1.34992         64.0568         13.2078 
        1.35606         63.7797         13.0666 
         1.3622          63.387         12.9277 
        1.36833          63.114         12.7911 
        1.37445         62.8402         12.6566 
        1.38059         62.2963         12.5236 
        1.38675         61.9957         12.3922 
        1.39288         61.5969         12.2633 
        1.39901         61.4125         12.1362 
        1.40515         61.1616         12.0106 
         1.4113          60.735         11.8869 
        1.41742         60.4963         11.7654 
        1.42355         60.0639         11.6454 
         1.4297         59.6965         11.5267 
        1.43585         59.4053         11.4097 
        1.44198         59.2002         11.2948 
        1.44809         58.9452         11.1817 
        1.45423         58.6844         11.0698 
        1.46036         58.4266         10.9595 
        1.46649         58.0521         10.8508 
        1.47263         57.7383         10.7434 
        1.47877         57.4865         10.6376 
        1.48491         57.1347          10.533 
        1.49104         56.8309           10.43 
        1.49718         56.4425         10.3283 
        1.50333         56.2958         10.2279 
        1.50947         56.0093          10.129 
         1.5156           55.68         10.0315 
        1.52172         55.5491         9.93531 
        1.52787         55.3367         9.84021 
          1.534          55.043         9.74646 
        1.54013         54.6954         9.65404 
        1.54627         54.4427         9.56265 
        1.55241         54.1705         9.47243 
        1.55855         53.7981         9.38351 
        1.56467         53.5019         9.29598 
         1.5708         53.4904         9.20932 
        1.57695         53.2063         9.12364 
        1.58308         52.9249         9.03925 
        1.58922         52.9207         8.95587 
        1.59535         52.6211         8.87358 
         1.6015         52.1842         8.79222 
        1.60764          52.004         8.71191 
        1.61376         51.7527         8.63284 
        1.61989         51.3998         8.55468 
        1.62604         51.2925         8.47732 
        1.63218         51.1345         8.40097 
        1.63831          50.849         8.32574 
        1.64444         50.5843         8.25141 
        1.65059         50.3237         8.17781 
        1.65673         50.1462         8.10519 
        1.66285         49.9024         8.03365 
        1.66898         49.6476         7.96296 
        1.67512         49.4638         7.89298 
        1.68127         49.1948         7.82379 
         1.6874         49.1294         7.75557 
        1.69353         48.8402         7.68822 
        1.69967         48.5541          7.6215 
        1.70581         48.6088          7.5556 
        1.71193         48.2787         7.49074 
        1.71806         47.9633          7.4265 
        1.72421         47.8794         7.36288 
        1.73035         47.5852         7.30009 
        1.73649         47.3245         7.23804 
        1.74262         47.2246         7.17677 
        1.74876         47.0882         7.11616 
        1.75489          46.826         7.05638 
        1.76101         46.7059         6.99731 
        1.76715          46.488         6.93884 
        1.77329         46.3105         6.88096 
        1.77943         46.0425         6.82372 
        1.78557         45.9102         6.76722 
        1.79171         45.7333         6.71135 
        1.79785         45.5962          6.6561 
        1.80399         45.3899         6.60149 
        1.81012          45.321         6.54756 
        1.81625         44.8346         6.49427 
        1.82239         44.8554         6.44149 
        1.82853         44.5283         6.38932 
        1.83466         44.3845         6.33778 
        1.84078         44.2125         6.28687 
        1.84692         43.9973         6.23643 
        1.85306         43.8817         6.18649 
         1.8592         43.7352         6.13717 
        1.86533         43.4603         6.08843 
        1.87147         43.4224         6.04015 
        1.87761         43.3457         5.99238 
        1.88375         43.0166         5.94518 
        1.88988         43.0218         5.89854 
        1.89601           42.73         5.85238 
        1.90215         42.5449         5.80668 
        1.90829          42.493         5.76148 
        1.91442         42.2257         5.71676 
        1.92056         42.1287         5.67256 
         1.9267         41.9177         5.62878 
        1.93284         41.7317         5.58543 
        1.93897         41.6126         5.54263 
        1.94509         41.4272         5.50037 
        1.95123         41.3333         5.45844 
        1.95737         41.1162         5.41692 
        1.96349         41.0265         5.37593 
        1.96964         40.8191         5.33526 
        1.97578         40.6888         5.29499 
        1.98192         40.5602         5.25521 
        1.98805         40.4569         5.21584 
        1.99419         40.2205         5.17688 
        2.00033         40.0446         5.13829 
        2.00647         39.9681         5.10011 
         2.0126         39.8448         5.06238 
        2.01874         39.6735         5.02498 
        2.02488         39.5946         4.98792 
        2.03101         39.4139         4.95131 
        2.03714         39.2471          4.9151 
        2.04328         39.0283         4.87921 
        2.04941         38.9322         4.84371 
        2.05554         38.7345         4.80859 
        2.06167         38.7565         4.77377 
        2.06781         38.4919         4.73929 
        2.07396         38.3334          4.7051 
        2.08009         38.2825         4.67131 
        2.08622         38.1087         4.63789 
        2.09237         37.9396         4.60474 
        2.09851         37.7802          4.5719 
        2.10464         37.7279         4.53943 
        2.11077         37.5052         4.50733 
        2.11691         37.4163         4.47546 
        2.12305         37.1887          4.4439 
        2.12918         37.2119         4.41271 
        2.13531         36.9845         4.38183 
        2.14145         36.9422         4.35117 
         2.1476         36.6919         4.32077 
        2.15372            36.6         4.29081 
        2.15985         36.4653          4.2611 
        2.16599         36.4005         4.23159 
        2.17213         36.2291         4.20239 
        2.17827         36.0433         4.17348 
         2.1844         35.9008         4.14486 
        2.19054         35.8119          4.1165 
        2.19666         35.7243         4.08845 
         2.2028         35.5446         4.06063 
        2.20893         35.4795         4.03306 
        2.21508         35.3523         4.00572 
        2.22122         35.1799         3.97862 
        2.22736         35.0761         3.95183 
        2.23349         34.9215         3.92529 
        2.23962         34.8087         3.89898 
        2.24577         34.6864         3.87289 
         2.2519         34.5938         3.84707 
        2.25802          34.463         3.82154 
        2.26417         34.3322         3.79616 
        2.27031         34.2693         3.77099 
        2.27644         34.1263         3.74613 
        2.28257         33.9448         3.72149 
        2.28872          33.858         3.69702 
        2.29486         33.7008         3.67278 
        2.30099         33.6588         3.64881 
        2.30712         33.5302         3.62504 
        2.31326         33.4551         3.60144 
         2.3194         33.2893         3.57807 
        2.32553         33.1219         3.55495 
        2.33166          33.046         3.53203 
         2.3378         32.8804         3.50929 
        2.34394         32.6964         3.48675 
        2.35007         32.6529         3.46443 
        2.35619         32.5908         3.44234 
        2.36233         32.5001         3.42038 
        2.36848         32.3199         3.39858 
        2.37462         32.2333         3.37701 
        2.38075         32.1349         3.35564 
        2.38689         32.0413         3.33445 
        2.39303         31.8855         3.31344 
        2.39916         31.7507         3.29263 
        2.40529         31.5986           3.272 
        2.41143         31.6014         3.25154 
        2.41757         31.4018         3.23124 
         2.4237         31.3883         3.21115 
        2.42983         31.1928         3.19124 
        2.43598         31.1345         3.17144 
        2.44211         31.0282         3.15184 
        2.44823          30.907         3.13245 
        2.45437         30.8321         3.11317 
        2.46052         30.7348         3.09404 
        2.46665         30.6363          3.0751 
        2.47279          30.514         3.05633 
        2.47892         30.3691          3.0377 
        2.48507         30.3366         3.01921 
         2.4912         30.2465         3.00091 
