# k  (h/Mpc)    Pcb(k)  (Mpc/h)^3    Pcb_linear(k)  (Mpc/h)^3
     0.00783031         1249.61          1254.6 
       0.013688          1536.6          1543.7 
       0.019231         1551.83         1555.55 
      0.0249154         1425.15         1430.23 
      0.0312784         1231.56         1231.01 
      0.0375637         1046.22         1043.81 
      0.0433917         906.533         907.455 
      0.0492413         813.802         810.151 
      0.0555754         735.447         739.047 
      0.0619321         692.082         686.751 
       0.067871         639.418          641.22 
      0.0738098         589.883         590.927 
      0.0800417         530.357         531.651 
      0.0862327         472.162         470.527 
      0.0921407         418.603         416.259 
      0.0982031         370.993         369.727 
       0.104506         338.388         333.466 
       0.110769         313.757         308.696 
       0.116806         295.083         292.332 
       0.122832         283.366         279.463 
       0.129052         268.072         266.143 
       0.135211         253.029         250.652 
       0.141259         236.634          232.87 
       0.147318         218.787         213.711 
       0.153489         199.105         194.783 
       0.159709         182.792         178.138 
       0.165845          171.77         165.101 
       0.171974          160.11         155.454 
       0.178125         153.678         148.403 
       0.184229         148.495          142.85 
        0.19034         141.443         137.561 
       0.196428         137.016         131.727 
       0.202534         131.206         124.999 
       0.208729         123.123         117.495 
       0.214876         115.105         109.929 
       0.220989         109.044         102.904 
       0.227147         102.071          96.787 
        0.23329         97.1534         91.8186 
       0.239377         93.7204         87.9039 
       0.245482         89.3112          84.685 
       0.251667         87.5013         81.7651 
       0.257832         84.6075         78.8538 
       0.263955         81.3437         75.7648 
       0.270079         78.1356         72.4503 
        0.27624         75.3607          68.998 
       0.282372         71.9187         65.6318 
        0.28843         68.6183         62.5446 
       0.294538         65.8989         59.7867 
       0.300721         63.9039         57.3833 
        0.30691         61.0598         55.3112 
       0.313033         59.3811         53.4852 
       0.319153         56.9197         51.7643 
       0.325316         55.9387         50.0433 
        0.33145         54.0141         48.2943 
       0.337538         52.3327         46.5242 
       0.343633         50.3755         44.7575 
       0.349808         48.8597         43.0273 
       0.355968         47.2279         41.4132 
       0.362074          45.679         39.9484 
       0.368217         44.3698         38.6164 
       0.374374         43.0152          37.399 
       0.380519         41.9302         36.2676 
       0.386598         40.9042         35.1972 
       0.392688         39.9189          34.144 
        0.39888         38.8271         33.0826 
       0.405048         37.7829         32.0361 
       0.411186         36.8432         31.0152 
       0.417313         35.6201         30.0346 
       0.423458         34.6733         29.1024 
       0.429607         33.7233          28.226 
       0.435692         32.7329         27.4155 
       0.441815         32.1084          26.649 
       0.447964         31.5576         25.9163 
       0.454126         30.4043         25.2095 
       0.460267         29.8538         24.5254 
       0.466387         28.9787         23.8582 
        0.47254         28.5122         23.2019 
       0.478662         27.9641         22.5679 
       0.484765         27.1049         21.9586 
       0.490885         26.4857         21.3726 
       0.497035         26.1393         20.8098 
       0.503198         25.4659         20.2729 
       0.509342         24.7955         19.7619 
       0.515458         24.3334         19.2731 
       0.521598         23.8691         18.7983 
       0.527764         23.3249         18.3355 
       0.533884         22.9389         17.8893 
           0.54         22.4247         17.4562 
       0.546137         22.0389         17.0342 
       0.552299         21.6667         16.6237 
       0.558452         21.0044          16.228 
       0.564573         20.7039         15.8489 
       0.570708         20.3531         15.4831 
       0.576825         19.8178         15.1316 
       0.582926          19.497         14.7925 
       0.589034         18.9862         14.4631 
       0.595184         18.7239          14.141 
       0.601379         18.3419          13.826 
       0.607522         18.0565         13.5227 
       0.613639         17.8451         13.2296 
       0.619772         17.3502         12.9446 
       0.625918         17.2553         12.6676 
       0.632068         16.9567         12.3987 
       0.638161         16.5909         12.1402 
         0.6443         16.2623         11.8875 
       0.650464         15.9564         11.6413 
       0.656582         15.8111          11.404 
       0.662703         15.5281         11.1735 
       0.668861         15.2558         10.9481 
       0.675024         14.9679         10.7288 
       0.681124         14.7155         10.5176 
       0.687237         14.4903         10.3117 
       0.693381         14.3246         10.1103 
       0.699536         13.9369         9.91396 
       0.705665         13.8147         9.72367 
       0.711789         13.5801         9.53859 
       0.717957          13.375         9.35712 
        0.72409         13.1513         9.18147 
       0.730186         12.9666         9.01146 
       0.736317         12.8335         8.84491 
       0.742472          12.627         8.68202 
       0.748622         12.4381         8.52343 
        0.75476         12.2039          8.3692 
       0.760888         12.0573         8.21904 
       0.767043         11.9124         8.07201 
       0.773185         11.6783         7.92891 
       0.779291          11.593         7.79011 
       0.785407         11.4042         7.65446 
       0.791564         11.2339         7.52122 
       0.797719         11.0225         7.39123 
       0.803834         10.9637         7.26517 
       0.809972         10.8442         7.14162 
       0.816124         10.6198          7.0207 
       0.822261         10.4789         6.90292 
       0.828378         10.3354         6.78823 
       0.834502         10.2651         6.67606 
       0.840667         10.0731         6.56572 
       0.846816         9.90942         6.45821 
       0.852925         9.82284          6.3538 
       0.859047         9.70187         6.25151 
       0.865192         9.62191         6.15114 
       0.871341         9.51084         6.05293 
       0.877463         9.35645         5.95733 
       0.883569         9.20634         5.86405 
       0.889708         9.07265         5.77231 
       0.895864          9.0002         5.68231 
       0.902008         8.89727         5.59443 
       0.908149         8.80404         5.50847 
       0.914301         8.67578          5.4242 
       0.920448         8.56032         5.34178 
       0.926574          8.4469         5.26137 
       0.932687          8.3678         5.18281 
       0.938823         8.26422         5.10557 
       0.944975         8.15658         5.02975 
       0.951105         8.07692         4.95575 
       0.957225         8.02664         4.88337 
       0.963368         7.92034         4.81221 
       0.969511         7.82059         4.74246 
       0.975621         7.72977         4.67449 
       0.981748         7.65104         4.60768 
       0.987916         7.57689         4.54176 
        0.99406         7.44923         4.47739 
        1.00019         7.35922         4.41441 
        1.00632         7.33303          4.3527 
        1.01246          7.2398         4.29209 
        1.01859         7.14308         4.23273 
        1.02471         7.07718         4.17458 
        1.03085         7.00183         4.11733 
        1.03698         6.90667         4.06129 
        1.04314         6.86253         4.00605 
        1.04929         6.77311         3.95198 
        1.05541         6.69341         3.89913 
        1.06154         6.63687         3.84712 
        1.06769          6.5986         3.79599 
        1.07382         6.49254         3.74596 
        1.07993         6.42215         3.69695 
        1.08607         6.38756         3.64862 
        1.09222         6.31469          3.6011 
        1.09836         6.25227          3.5545 
        1.10449          6.1923         3.50877 
        1.11063         6.12425         3.46381 
        1.11677         6.08414         3.41965 
         1.1229         6.01754         3.37635 
        1.12903         5.95377         3.33376 
        1.13518         5.89018         3.29187 
        1.14131         5.82236         3.25073 
        1.14745         5.75327         3.21032 
        1.15359         5.72676          3.1706 
        1.15973         5.66564         3.13153 
        1.16584         5.59992          3.0933 
        1.17197          5.5514         3.05566 
        1.17811         5.51418         3.01853 
        1.18424         5.46561         2.98213 
        1.19038         5.42679         2.94623 
        1.19652         5.37475         2.91093 
        1.20267         5.30934         2.87622 
        1.20881         5.28916         2.84208 
        1.21495         5.23233         2.80855 
        1.22108         5.17915         2.77557 
         1.2272         5.15031          2.7432 
        1.23334         5.08505         2.71128 
        1.23949         5.03149         2.67979 
        1.24562         5.01021         2.64889 
        1.25174         4.95483         2.61852 
        1.25789          4.9205         2.58854 
        1.26402           4.876         2.55909 
        1.27014         4.83376         2.53017 
        1.27628         4.80403         2.50161 
        1.28244         4.74051         2.47344 
        1.28858          4.7238         2.44575 
        1.29471         4.66945         2.41854 
        1.30084         4.62543         2.39177 
        1.30697         4.62596         2.36537 
        1.31312         4.53763         2.33934 
        1.31925         4.52073         2.31378 
        1.32537         4.48492         2.28862 
        1.33151         4.46338         2.26376 
        1.33765         4.40631         2.23927 
        1.34378         4.37916          2.2152 
        1.34992         4.36208         2.19147 
        1.35606         4.30394         2.16804 
         1.3622         4.28485         2.14499 
        1.36833         4.24613         2.12233 
        1.37445         4.21422         2.10001 
        1.38059         4.19675         2.07795 
        1.38675         4.16907         2.05615 
        1.39288         4.12814         2.03475 
        1.39901         4.09252         2.01367 
        1.40515          4.0648         1.99284 
         1.4113         4.04133         1.97231 
        1.41742         4.01195         1.95215 
        1.42355         3.98155         1.93224 
         1.4297          3.9525         1.91254 
        1.43585         3.93021         1.89313 
        1.44198         3.91549         1.87407 
        1.44809         3.87281          1.8553 
        1.45423         3.84352         1.83672 
        1.46036         3.81612         1.81843 
        1.46649         3.79067         1.80039 
        1.47263         3.76557         1.78258 
        1.47877         3.73752         1.76501 
        1.48491         3.71412         1.74766 
        1.49104         3.69667         1.73057 
        1.49718         3.67529          1.7137 
        1.50333         3.65792         1.69704 
        1.50947         3.62773         1.68062 
         1.5156         3.60531         1.66445 
        1.52172         3.58732         1.64849 
        1.52787         3.56155         1.63271 
          1.534         3.54079         1.61716 
        1.54013         3.52282         1.60182 
        1.54627         3.49414         1.58666 
        1.55241         3.47483         1.57169 
        1.55855         3.46335         1.55694 
        1.56467         3.44451         1.54241 
         1.5708         3.41599         1.52804 
        1.57695         3.39413         1.51382 
        1.58308         3.38031         1.49982 
        1.58922         3.36857         1.48598 
        1.59535         3.35211         1.47233 
         1.6015          3.3338         1.45883 
        1.60764         3.31969          1.4455 
        1.61376         3.30229         1.43238 
        1.61989         3.28544         1.41942 
        1.62604         3.26618         1.40658 
        1.63218          3.2712         1.39391 
        1.63831         3.23621         1.38143 
        1.64444         3.22484          1.3691 
        1.65059         3.21786         1.35688 
        1.65673         3.21036         1.34483 
        1.66285         3.18389         1.33297 
        1.66898          3.1786         1.32124 
        1.67512         3.16596         1.30963 
        1.68127         3.15346         1.29814 
         1.6874         3.14542         1.28683 
        1.69353         3.12938         1.27565 
        1.69967          3.1258         1.26458 
        1.70581         3.12158         1.25365 
        1.71193         3.10989         1.24288 
        1.71806         3.10005         1.23223 
        1.72421         3.09698         1.22167 
        1.73035         3.09381         1.21125 
        1.73649         3.07979         1.20096 
        1.74262         3.07163         1.19079 
        1.74876          3.0702         1.18073 
        1.75489         3.05524         1.17082 
        1.76101         3.04759         1.16101 
        1.76715         3.06168         1.15131 
        1.77329         3.04517         1.14171 
        1.77943         3.03571         1.13221 
        1.78557         3.03798         1.12284 
        1.79171         3.03564         1.11357 
        1.79785         3.03205          1.1044 
        1.80399         3.03947         1.09534 
        1.81012         3.03405         1.08639 
        1.81625           3.034         1.07755 
        1.82239          3.0395         1.06879 
        1.82853         3.03229         1.06013 
        1.83466         3.03024         1.05158 
        1.84078         3.03169         1.04314 
        1.84692          3.0395         1.03477 
        1.85306         3.04193         1.02648 
         1.8592         3.04146          1.0183 
        1.86533         3.05081         1.01021 
        1.87147         3.05927          1.0022 
        1.87761          3.0488        0.994273 
        1.88375          3.0525        0.986442 
        1.88988         3.06157        0.978704 
        1.89601         3.06646        0.971044 
        1.90215         3.06964        0.963461 
        1.90829         3.08173        0.955962 
        1.91442         3.08848        0.948542 
        1.92056         3.10567        0.941208 
         1.9267         3.10385        0.933944 
        1.93284         3.11345        0.926752 
        1.93897         3.12575         0.91965 
        1.94509         3.14397        0.912637 
        1.95123         3.14229         0.90568 
        1.95737         3.15821        0.898791 
        1.96349         3.17442        0.891991 
        1.96964         3.18928        0.885242 
        1.97578         3.19708         0.87856 
        1.98192         3.20917        0.871961 
        1.98805         3.22515        0.865429 
        1.99419         3.23352        0.858963 
        2.00033         3.25281        0.852561 
        2.00647         3.27572        0.846226 
         2.0126         3.29282        0.839966 
        2.01874         3.29671         0.83376 
        2.02488         3.33128        0.827611 
        2.03101         3.35122        0.821536 
        2.03714         3.35764        0.815528 
        2.04328         3.37277        0.809573 
        2.04941         3.40707        0.803683 
        2.05554         3.42532        0.797855 
        2.06167         3.45332        0.792078 
        2.06781          3.4713        0.786357 
        2.07396         3.49099        0.780685 
        2.08009         3.52856        0.775078 
        2.08622         3.54151        0.769534 
        2.09237         3.56905        0.764032 
        2.09851         3.60001        0.758584 
        2.10464         3.62661        0.753197 
        2.11077         3.66588         0.74787 
        2.11691         3.69023        0.742582 
        2.12305         3.71199        0.737345 
        2.12918         3.74737        0.732171 
        2.13531         3.76494        0.727047 
        2.14145         3.80072         0.72196 
         2.1476          3.8409        0.716915 
        2.15372         3.86666        0.711944 
        2.15985         3.89988        0.707015 
        2.16599         3.93967        0.702119 
        2.17213         3.97298        0.697274 
        2.17827         4.00962        0.692477 
         2.1844         4.04908        0.687728 
        2.19054          4.0974        0.683023 
        2.19666          4.1228        0.678368 
         2.2028         4.15576        0.673753 
        2.20893         4.19804        0.669179 
        2.21508         4.21596        0.664642 
        2.22122          4.2958        0.660145 
        2.22736         4.35059          0.6557 
        2.23349         4.38352        0.651296 
        2.23962         4.43446        0.646931 
        2.24577         4.46677        0.642602 
         2.2519         4.50675        0.638319 
        2.25802         4.56452        0.634082 
        2.26417         4.60352        0.629871 
        2.27031         4.65179        0.625695 
        2.27644         4.71603        0.621569 
        2.28257         4.74743        0.617481 
        2.28872         4.81051        0.613422 
        2.29486         4.87509          0.6094 
        2.30099         4.91493        0.605422 
        2.30712          4.9878        0.601479 
        2.31326         5.04606        0.597563 
         2.3194          5.0848        0.593685 
        2.32553         5.12854        0.589848 
        2.33166         5.19698        0.586047 
         2.3378          5.2514        0.582274 
        2.34394         5.33717        0.578533 
        2.35007         5.37486         0.57483 
        2.35619         5.43427        0.571164 
        2.36233         5.51958        0.567521 
        2.36848         5.56993        0.563903 
        2.37462         5.64866        0.560324 
        2.38075         5.70701        0.556779 
        2.38689         5.82309        0.553262 
        2.39303          5.8353        0.549777 
        2.39916         5.94389        0.546324 
        2.40529         5.98448        0.542902 
        2.41143         6.07497        0.539506 
        2.41757         6.12834        0.536138 
         2.4237         6.19255        0.532805 
        2.42983         6.29162        0.529501 
        2.43598         6.32751        0.526215 
        2.44211         6.43655        0.522964 
        2.44823         6.49964        0.519747 
        2.45437         6.59786        0.516548 
        2.46052         6.67192        0.513373 
        2.46665         6.74354        0.510231 
        2.47279         6.80399        0.507116 
        2.47892         6.89334        0.504025 
        2.48507         7.00595        0.500957 
         2.4912         7.07238        0.497921 
