# k  (h/Mpc)    P(k)  (Mpc/h)^3    P_linear(k)  (Mpc/h)^3
     0.00783031         6085.84         6094.84 
       0.013688         7525.53         7489.93 
       0.019231         7565.22         7545.01 
      0.0249154         6891.15         6935.69 
      0.0312784         5968.41         5968.72 
      0.0375637         5083.46         5060.62 
      0.0433917          4375.6         4399.27 
      0.0492413          3941.5         3927.37 
      0.0555754         3531.94         3582.55 
      0.0619321         3361.27         3328.95 
       0.067871          3073.9         3108.18 
      0.0738098         2834.66         2864.35 
      0.0800417         2538.09         2576.99 
      0.0862327         2272.07         2280.69 
      0.0921407         2029.15         2017.63 
      0.0982031         1794.55         1792.07 
       0.104506         1658.17          1616.3 
       0.110769         1537.15         1496.23 
       0.116806         1442.32         1416.91 
       0.122832         1383.96         1354.53 
       0.129052         1299.25         1289.96 
       0.135211         1229.76         1214.87 
       0.141259         1159.83         1128.68 
       0.147318         1078.52         1035.82 
       0.153489         981.065         944.077 
       0.159709         911.379         863.401 
       0.165845         864.599         800.209 
       0.171974         808.494          753.45 
       0.178125         775.238         719.274 
       0.184229         749.262         692.359 
        0.19034         705.363         666.725 
       0.196428         690.882         638.447 
       0.202534         665.599          605.84 
       0.208729         627.981         569.467 
       0.214876         589.886         532.798 
       0.220989         565.906         498.746 
       0.227147         533.205           469.1 
        0.23329         509.937          445.02 
       0.239377         497.189         426.046 
       0.245482         466.073         410.444 
       0.251667         461.871         396.293 
       0.257832         448.148         382.182 
       0.263955         431.266          367.21 
       0.270079         415.218         351.146 
        0.27624         407.425         334.413 
       0.282372         389.997         318.098 
        0.28843         376.817         303.135 
       0.294538         360.143         289.769 
       0.300721         355.067          278.12 
        0.30691         338.742         268.076 
       0.313033          331.96         259.226 
       0.319153         319.016         250.886 
       0.325316         311.605         242.545 
        0.33145         301.362         234.067 
       0.337538         297.416         225.488 
       0.343633         287.192         216.925 
       0.349808         278.086         208.539 
       0.355968         273.612         200.717 
       0.362074         265.956         193.617 
       0.368217         259.415         187.162 
       0.374374         250.949         181.261 
       0.380519         246.845         175.777 
       0.386598         240.783         170.589 
       0.392688         237.449         165.485 
        0.39888          231.47         160.341 
       0.405048         226.323         155.268 
       0.411186         221.381         150.321 
       0.417313         216.475         145.567 
       0.423458          212.68          141.05 
       0.429607         207.612         136.801 
       0.435692         201.111         132.874 
       0.441815           199.9         129.159 
       0.447964         196.435         125.608 
       0.454126         188.208         122.182 
       0.460267         186.392         118.866 
       0.466387         183.812         115.633 
        0.47254         180.063         112.452 
       0.478662         178.558         109.379 
       0.484765         173.275         106.426 
       0.490885         170.676         103.586 
       0.497035         168.688         100.858 
       0.503198         164.063         98.2558 
       0.509342         161.703         95.7791 
       0.515458          159.34           93.41 
       0.521598         157.309          91.109 
       0.527764         154.853         88.8657 
       0.533884         152.567         86.7033 
           0.54         149.999         84.6045 
       0.546137         148.921          82.559 
       0.552299         146.451         80.5696 
       0.558452         143.526         78.6516 
       0.564573          141.06         76.8138 
       0.570708          139.17         75.0416 
       0.576825           137.2         73.3377 
       0.582926         134.864         71.6941 
       0.589034         132.846          70.098 
       0.595184          131.35         68.5367 
       0.601379          129.84         67.0097 
       0.607522         126.941         65.5397 
       0.613639         126.458         64.1194 
       0.619772         123.688          62.738 
       0.625918         122.554         61.3953 
       0.632068         121.141         60.0921 
       0.638161          119.86         58.8394 
         0.6443         118.258         57.6145 
       0.650464         117.017         56.4212 
       0.656582         115.331         55.2714 
       0.662703         113.457          54.154 
       0.668861         112.075         53.0615 
       0.675024         110.905         51.9986 
       0.681124         109.784         50.9753 
       0.687237         107.862         49.9773 
       0.693381         106.572         49.0013 
       0.699536         105.556         48.0495 
       0.705665         105.859         47.1273 
       0.711789          103.03         46.2302 
       0.717957         102.481         45.3507 
        0.72409         101.044         44.4994 
       0.730186         99.4242         43.6754 
       0.736317         99.2116         42.8682 
       0.742472         98.1828         42.0787 
       0.748622         97.1745         41.3101 
        0.75476          96.228         40.5626 
       0.760888         94.8832         39.8349 
       0.767043         93.9787         39.1222 
       0.773185         92.9012         38.4287 
       0.779291         92.1872          37.756 
       0.785407         91.2888         37.0985 
       0.791564         90.3116         36.4527 
       0.797719          89.016         35.8227 
       0.803834         88.6735         35.2117 
       0.809972         87.2211         34.6129 
       0.816124         86.6846         34.0269 
       0.822261         85.9797         33.4561 
       0.828378         85.2262         32.9002 
       0.834502          84.404         32.3565 
       0.840667         83.6827         31.8218 
       0.846816         82.6235         31.3007 
       0.852925         81.8617         30.7947 
       0.859047         80.9457         30.2989 
       0.865192         80.5584         29.8124 
       0.871341         80.0088         29.3365 
       0.877463         78.6827         28.8731 
       0.883569         78.1234          28.421 
       0.889708         77.7246         27.9764 
       0.895864         77.0566         27.5402 
       0.902008         76.2976         27.1142 
       0.908149         75.8369         26.6976 
       0.914301         75.1426         26.2892 
       0.920448          74.476         25.8897 
       0.926574         73.8295            25.5 
       0.932687         73.5171         25.1192 
       0.938823         72.3776         24.7449 
       0.944975         72.0213         24.3774 
       0.951105         71.3444         24.0188 
       0.957225         70.5302          23.668 
       0.963368         70.2573         23.3231 
       0.969511         69.8226         22.9851 
       0.975621         69.3433         22.6556 
       0.981748          68.522         22.3318 
       0.987916         68.2393         22.0123 
        0.99406         67.6453         21.7003 
        1.00019         66.9187         21.3951 
        1.00632         66.5391          21.096 
        1.01246         65.9524         20.8022 
        1.01859         65.2003         20.5146 
        1.02471         65.3671         20.2327 
        1.03085         64.5612         19.9553 
        1.03698         64.0306         19.6836 
        1.04314         63.4163         19.4159 
        1.04929         63.0704         19.1538 
        1.05541         62.4182         18.8977 
        1.06154         62.3407         18.6456 
        1.06769         61.7706         18.3978 
        1.07382         61.4682         18.1553 
        1.07993         61.1678         17.9178 
        1.08607         60.5106         17.6836 
        1.09222         60.2873         17.4533 
        1.09836         59.7478         17.2274 
        1.10449         59.2596         17.0058 
        1.11063         58.7825         16.7879 
        1.11677         58.3365         16.5738 
         1.1229          58.107         16.3639 
        1.12903           57.23         16.1575 
        1.13518         57.3249         15.9545 
        1.14131         57.0545         15.7551 
        1.14745          56.346         15.5593 
        1.15359          56.237         15.3667 
        1.15973          55.624         15.1774 
        1.16584         55.2722         14.9921 
        1.17197         55.0069         14.8097 
        1.17811         54.7296         14.6297 
        1.18424         54.0592         14.4533 
        1.19038         53.9536         14.2793 
        1.19652         53.7107         14.1083 
        1.20267         53.3072           13.94 
        1.20881         53.0578         13.7746 
        1.21495         52.5781         13.6121 
        1.22108         52.2258         13.4522 
         1.2272         51.7232         13.2953 
        1.23334         51.5785         13.1406 
        1.23949         51.3564          12.988 
        1.24562         50.9872         12.8382 
        1.25174         50.7985          12.691 
        1.25789         50.4587         12.5457 
        1.26402         49.9503          12.403 
        1.27014         49.6492         12.2628 
        1.27628         49.4202         12.1244 
        1.28244         49.1207         11.9879 
        1.28858         48.9224         11.8537 
        1.29471         48.5836         11.7218 
        1.30084         48.4478         11.5921 
        1.30697         48.0406         11.4641 
        1.31312         47.6144         11.3379 
        1.31925         47.6131          11.214 
        1.32537          47.315         11.0921 
        1.33151         46.9929         10.9716 
        1.33765         46.8452          10.853 
        1.34378         46.5056         10.7363 
        1.34992         46.0088         10.6213 
        1.35606         45.8643         10.5077 
         1.3622         45.6163          10.396 
        1.36833         45.4212         10.2862 
        1.37445         45.3525          10.178 
        1.38059         44.9854         10.0711 
        1.38675         44.6876         9.96541 
        1.39288         44.5067          9.8617 
        1.39901         44.1797         9.75952 
        1.40515         44.0915         9.65856 
         1.4113         43.8779         9.55907 
        1.41742         43.5309         9.46137 
        1.42355         43.3798         9.36486 
         1.4297         43.0202         9.26941 
        1.43585         43.0072         9.17533 
        1.44198         42.6966         9.08293 
        1.44809         42.5139         8.99197 
        1.45423         42.3647         8.90193 
        1.46036         42.2269         8.81329 
        1.46649         41.8893         8.72583 
        1.47263         41.7068          8.6395 
        1.47877          41.604         8.55437 
        1.48491         41.2967         8.47026 
        1.49104         41.0948         8.38746 
        1.49718          40.811         8.30571 
        1.50333         40.7893         8.22492 
        1.50947         40.5832         8.14537 
         1.5156         40.3126         8.06699 
        1.52172         40.1251         7.98965 
        1.52787         40.1141         7.91317 
          1.534          39.849         7.83778 
        1.54013         39.5849         7.76346 
        1.54627         39.4595         7.68997 
        1.55241         39.2851         7.61742 
        1.55855         39.0406         7.54591 
        1.56467         38.8076         7.47552 
         1.5708         38.8517         7.40583 
        1.57695         38.5441         7.33693 
        1.58308         38.5518         7.26907 
        1.58922         38.3785         7.20202 
        1.59535         38.1457         7.13584 
         1.6015         37.9373         7.07041 
        1.60764          37.829         7.00583 
        1.61376         37.6351         6.94224 
        1.61989          37.363         6.87939 
        1.62604         37.4148         6.81718 
        1.63218         37.1393         6.75579 
        1.63831         37.0467         6.69529 
        1.64444         36.9132         6.63551 
        1.65059         36.7196         6.57632 
        1.65673         36.5594         6.51792 
        1.66285          36.462          6.4604 
        1.66898         36.2484         6.40355 
        1.67512         36.1866         6.34728 
        1.68127         35.9857         6.29163 
         1.6874         35.9002         6.23678 
        1.69353         35.7158         6.18261 
        1.69967          35.585         6.12896 
        1.70581          35.581         6.07597 
        1.71193         35.3739          6.0238 
        1.71806         35.2413         5.97214 
        1.72421           35.04         5.92099 
        1.73035         34.9459         5.87049 
        1.73649         34.8825         5.82059 
        1.74262         34.7231         5.77132 
        1.74876         34.6764         5.72258 
        1.75489         34.4851         5.67451 
        1.76101         34.3988         5.62701 
        1.76715         34.2946         5.57998 
        1.77329         34.1688         5.53344 
        1.77943           34.01         5.48741 
        1.78557         33.8954         5.44197 
        1.79171         33.8143         5.39704 
        1.79785         33.7379         5.35262 
        1.80399         33.6267          5.3087 
        1.81012          33.586         5.26533 
        1.81625         33.3018         5.22247 
        1.82239         33.3311         5.18003 
        1.82853         33.1422         5.13808 
        1.83466         32.9764         5.09663 
        1.84078         32.9265         5.05569 
        1.84692         32.8391         5.01513 
        1.85306         32.7509         4.97497 
         1.8592          32.625         4.93531 
        1.86533         32.4578         4.89611 
        1.87147         32.4468         4.85729 
        1.87761         32.4453         4.81887 
        1.88375         32.2701         4.78092 
        1.88988         32.2208         4.74341 
        1.89601         32.0542         4.70629 
        1.90215         31.9761         4.66954 
        1.90829         31.9364         4.63319 
        1.91442         31.7594         4.59723 
        1.92056         31.6941         4.56169 
         1.9267         31.6185         4.52648 
        1.93284         31.4482         4.49162 
        1.93897         31.4411          4.4572 
        1.94509         31.3561         4.42321 
        1.95123         31.2006          4.3895 
        1.95737         31.1383         4.35611 
        1.96349          31.121         4.32315 
        1.96964         30.9578         4.29044 
        1.97578         30.9432         4.25805 
        1.98192          30.803         4.22607 
        1.98805         30.8192         4.19441 
        1.99419         30.6239         4.16307 
        2.00033         30.5094         4.13204 
        2.00647         30.4797         4.10134 
         2.0126          30.352           4.071 
        2.01874         30.3733         4.04092 
        2.02488         30.3212         4.01112 
        2.03101         30.1738         3.98168 
        2.03714         30.0578         3.95256 
        2.04328         29.9376          3.9237 
        2.04941         29.9575         3.89515 
        2.05554          29.848         3.86691 
        2.06167         29.7845         3.83891 
        2.06781         29.6832         3.81118 
        2.07396         29.6033         3.78369 
        2.08009         29.5924         3.75652 
        2.08622         29.5525         3.72964 
        2.09237         29.4318         3.70298 
        2.09851         29.2909         3.67657 
        2.10464         29.2633         3.65046 
        2.11077         29.0849         3.62464 
        2.11691         29.0962         3.59902 
        2.12305         28.9744         3.57363 
        2.12918         28.9992         3.54856 
        2.13531         28.8969         3.52372 
        2.14145         28.8289         3.49907 
         2.1476         28.7092         3.47462 
        2.15372          28.674         3.45052 
        2.15985         28.5824         3.42664 
        2.16599         28.4833         3.40291 
        2.17213         28.4438         3.37943 
        2.17827         28.3033         3.35617 
         2.1844         28.2528         3.33316 
        2.19054         28.1996         3.31036 
        2.19666         28.2029          3.2878 
         2.2028         28.1104         3.26543 
        2.20893         28.0454         3.24326 
        2.21508         27.9648         3.22127 
        2.22122         27.8326         3.19947 
        2.22736         27.7966         3.17793 
        2.23349         27.7054         3.15659 
        2.23962         27.6104         3.13543 
        2.24577         27.5408         3.11445 
         2.2519         27.5615         3.09369 
        2.25802         27.4841         3.07315 
        2.26417         27.3615         3.05275 
        2.27031         27.3427         3.03251 
        2.27644         27.2501         3.01251 
        2.28257         27.1892          2.9927 
        2.28872         27.1103         2.97302 
        2.29486         26.9996         2.95353 
        2.30099         26.9158         2.93425 
        2.30712         26.9732         2.91514 
        2.31326         26.8904         2.89616 
         2.3194         26.7928         2.87737 
        2.32553         26.6726         2.85877 
        2.33166         26.5853         2.84035 
         2.3378         26.5532         2.82206 
        2.34394         26.4356         2.80393 
        2.35007         26.3779         2.78598 
        2.35619         26.3563         2.76821 
        2.36233         26.3396         2.75056 
        2.36848         26.2545         2.73302 
        2.37462         26.1585         2.71568 
        2.38075           26.14          2.6985 
        2.38689         26.0841         2.68145 
        2.39303         25.9648         2.66456 
        2.39916         25.8835         2.64783 
        2.40529         25.8459         2.63124 
        2.41143         25.8313         2.61478 
        2.41757         25.6872         2.59846 
         2.4237         25.7027          2.5823 
        2.42983         25.5455         2.56629 
        2.43598         25.5279         2.55036 
        2.44211         25.4821          2.5346 
        2.44823         25.3599         2.51901 
        2.45437         25.3626         2.50351 
        2.46052         25.2761         2.48812 
        2.46665         25.2569         2.47289 
        2.47279         25.1386          2.4578 
        2.47892         25.0946         2.44282 
        2.48507         25.0323         2.42795 
         2.4912         24.9858         2.41323 
