# k  (h/Mpc)    P(k)  (Mpc/h)^3    P_linear(k)  (Mpc/h)^3
     0.00783031         15400.9         15420.7 
       0.013688         19156.9         18941.9 
       0.019231         19149.6         19076.6 
      0.0249154         17273.5         17533.3 
      0.0312784         14983.3         15087.1 
      0.0375637         12801.8         12790.7 
      0.0433917         10933.7         11118.6 
      0.0492413         9884.34         9925.54 
      0.0555754         8765.45         9053.81 
      0.0619321         8430.44          8412.7 
       0.067871         7623.06         7854.63 
      0.0738098         7032.14         7238.34 
      0.0800417         6267.76         6512.07 
      0.0862327         5647.46         5763.26 
      0.0921407         5098.27         5098.46 
      0.0982031         4514.93         4528.44 
       0.104506         4225.14         4084.27 
       0.110769         3917.27         3780.83 
       0.116806         3688.63         3580.38 
       0.122832          3517.9         3422.73 
       0.129052         3278.26         3259.57 
       0.135211         3110.83         3069.82 
       0.141259         2963.21         2852.02 
       0.147318         2778.43         2617.36 
       0.153489         2532.56         2385.53 
       0.159709          2379.8         2181.67 
       0.165845         2285.87         2021.99 
       0.171974         2158.17         1903.84 
       0.178125         2058.73         1817.48 
       0.184229         1979.84         1749.47 
        0.19034         1874.26         1684.69 
       0.196428         1836.56         1613.24 
       0.202534         1765.75         1530.84 
       0.208729         1684.07         1438.93 
       0.214876         1608.31         1346.28 
       0.220989         1552.49         1260.23 
       0.227147         1485.94         1185.32 
        0.23329         1424.66         1124.48 
       0.239377         1401.72         1076.53 
       0.245482         1314.24         1037.11 
       0.251667         1310.06         1001.35 
       0.257832          1262.7         965.694 
       0.263955         1219.95         927.862 
       0.270079         1177.47         887.272 
        0.27624         1164.35         844.991 
       0.282372         1115.57         803.764 
        0.28843         1106.62         765.956 
       0.294538         1051.24         732.183 
       0.300721          1044.7         702.748 
        0.30691         1004.54          677.37 
       0.313033         986.236         655.008 
       0.319153         964.875         633.934 
       0.325316         935.502         612.857 
        0.33145         913.905         591.435 
       0.337538         900.107         569.759 
       0.343633         877.977         548.122 
       0.349808         848.148         526.931 
       0.355968          842.37         507.166 
       0.362074          832.91         489.227 
       0.368217             808         472.915 
       0.374374         777.119         458.004 
       0.380519         777.185         444.149 
       0.386598         756.431          431.04 
       0.392688         753.981         418.142 
        0.39888         731.336         405.144 
       0.405048         722.083         392.327 
       0.411186         711.905         379.826 
       0.417313         695.884         367.816 
       0.423458         685.104         356.401 
       0.429607         674.903         345.666 
       0.435692         660.537         335.742 
       0.441815         655.691         326.354 
       0.447964         641.532         317.383 
       0.454126         633.901         308.726 
       0.460267         619.797         300.348 
       0.466387         612.526         292.178 
        0.47254         605.607          284.14 
       0.478662         600.976         276.375 
       0.484765         582.788         268.913 
       0.490885         578.933         261.737 
       0.497035         566.838         254.845 
       0.503198         562.638         248.269 
       0.509342         557.438         242.011 
       0.515458         552.984         236.025 
       0.521598         539.489         230.211 
       0.527764         529.823         224.543 
       0.533884         528.227         219.079 
           0.54         521.278         213.776 
       0.546137         518.286         208.607 
       0.552299         510.141          203.58 
       0.558452         506.611         198.734 
       0.564573         499.861          194.09 
       0.570708         493.073         189.612 
       0.576825         480.209         185.307 
       0.582926          480.73         181.154 
       0.589034         477.009         177.121 
       0.595184         472.627         173.176 
       0.601379          465.75         169.318 
       0.607522         458.569         165.603 
       0.613639         458.088         162.014 
       0.619772         447.111         158.524 
       0.625918         445.497         155.131 
       0.632068         439.055         151.839 
       0.638161         437.054         148.673 
         0.6443         429.485         145.578 
       0.650464         426.851         142.563 
       0.656582         423.884         139.658 
       0.662703         421.988         136.834 
       0.668861         414.587         134.074 
       0.675024         411.046         131.388 
       0.681124         407.861         128.802 
       0.687237         404.159         126.281 
       0.693381         398.968         123.814 
       0.699536         392.852          121.41 
       0.705665         391.257         119.079 
       0.711789         389.089         116.813 
       0.717957         385.466          114.59 
        0.72409         382.658         112.439 
       0.730186         377.634         110.357 
       0.736317         374.094         108.318 
       0.742472         372.515         106.323 
       0.748622         368.407         104.381 
        0.75476         363.569         102.492 
       0.760888         359.718         100.653 
       0.767043           359.6         98.8525 
       0.773185         355.498            97.1 
       0.779291         350.616         95.4002 
       0.785407         349.607          93.739 
       0.791564         344.823         92.1072 
       0.797719          342.62         90.5154 
       0.803834         339.599         88.9716 
       0.809972         337.694         87.4586 
       0.816124          337.29         85.9777 
       0.822261         332.379         84.5354 
       0.828378           330.4         83.1308 
       0.834502         326.967         81.7571 
       0.840667         323.639         80.4059 
       0.846816         321.827         79.0893 
       0.852925         319.611         77.8107 
       0.859047          317.12         76.5579 
       0.865192          313.62         75.3288 
       0.871341         311.023         74.1261 
       0.877463         309.527         72.9554 
       0.883569         307.299          71.813 
       0.889708         304.669         70.6895 
       0.895864         302.563         69.5873 
       0.902008         299.901         68.5111 
       0.908149         297.041         67.4585 
       0.914301         294.397         66.4264 
       0.920448         292.259         65.4171 
       0.926574          288.56         64.4324 
       0.932687         288.946         63.4702 
       0.938823         285.455         62.5244 
       0.944975         284.067         61.5958 
       0.951105         281.352         60.6896 
       0.957225         279.884         59.8033 
       0.963368         276.514         58.9317 
       0.969511         275.421         58.0777 
       0.975621         272.271         57.2452 
       0.981748         272.169         56.4271 
       0.987916         270.079         55.6198 
        0.99406         265.645         54.8315 
        1.00019         264.897         54.0602 
        1.00632         263.244         53.3045 
        1.01246         261.027         52.5622 
        1.01859         261.237         51.8353 
        1.02471         256.997         51.1232 
        1.03085         255.404         50.4221 
        1.03698         254.432         49.7357 
        1.04314         251.068         49.0593 
        1.04929          249.53         48.3971 
        1.05541         249.487         47.7499 
        1.06154          245.41          47.113 
        1.06769         244.877         46.4868 
        1.07382         243.229         45.8741 
        1.07993         241.176         45.2739 
        1.08607         240.164          44.682 
        1.09222         238.534         44.1002 
        1.09836         236.565         43.5294 
        1.10449         233.909         42.9695 
        1.11063          231.67         42.4188 
        1.11677         231.363         41.8781 
         1.1229         229.663         41.3477 
        1.12903         227.775         40.8262 
        1.13518         226.137         40.3132 
        1.14131         224.351         39.8094 
        1.14745         223.513         39.3145 
        1.15359         221.613          38.828 
        1.15973         220.433         38.3496 
        1.16584         218.052         37.8815 
        1.17197         218.272         37.4205 
        1.17811         215.061         36.9658 
        1.18424         214.083           36.52 
        1.19038         213.262         36.0804 
        1.19652         211.207         35.6481 
        1.20267         210.403          35.223 
        1.20881          208.87          34.805 
        1.21495         207.174         34.3943 
        1.22108         205.985         33.9905 
         1.2272         204.227          33.594 
        1.23334         202.917         33.2031 
        1.23949         201.593         32.8174 
        1.24562         200.658          32.439 
        1.25174         198.687         32.0671 
        1.25789         197.313            31.7 
        1.26402         195.515         31.3393 
        1.27014         194.309         30.9852 
        1.27628         193.389         30.6354 
        1.28244         193.092         30.2905 
        1.28858         190.756         29.9513 
        1.29471         189.131         29.6181 
        1.30084         188.432         29.2903 
        1.30697         186.791          28.967 
        1.31312         185.226         28.6482 
        1.31925         184.494         28.3351 
        1.32537         183.379         28.0271 
        1.33151         181.842         27.7226 
        1.33765         180.361         27.4228 
        1.34378         179.568          27.128 
        1.34992         178.393         26.8374 
        1.35606         177.912         26.5504 
         1.3622         176.408         26.2681 
        1.36833         174.676         25.9906 
        1.37445         173.962         25.7173 
        1.38059         171.951         25.4471 
        1.38675         171.483         25.1802 
        1.39288          170.28         24.9181 
        1.39901         169.879         24.6599 
        1.40515         167.877         24.4048 
         1.4113         166.884         24.1534 
        1.41742         165.456         23.9066 
        1.42355         164.485         23.6627 
         1.4297         163.232         23.4215 
        1.43585          162.76         23.1838 
        1.44198         161.467         22.9503 
        1.44809         160.652         22.7205 
        1.45423         159.619          22.493 
        1.46036          158.79          22.269 
        1.46649         157.181          22.048 
        1.47263         156.309         21.8299 
        1.47877         155.122         21.6148 
        1.48491         153.809         21.4023 
        1.49104         153.485         21.1931 
        1.49718         151.705         20.9865 
        1.50333         151.144         20.7824 
        1.50947          150.41         20.5814 
         1.5156         149.191         20.3833 
        1.52172          148.06         20.1879 
        1.52787         146.884         19.9946 
          1.534           146.5         19.8042 
        1.54013         145.328         19.6164 
        1.54627         144.436         19.4307 
        1.55241         143.192         19.2473 
        1.55855         142.234         19.0667 
        1.56467         141.326         18.8888 
         1.5708         140.681         18.7127 
        1.57695          139.61         18.5386 
        1.58308         138.764         18.3671 
        1.58922         138.172         18.1977 
        1.59535         136.789         18.0305 
         1.6015         136.733         17.8652 
        1.60764         135.156          17.702 
        1.61376         134.512         17.5413 
        1.61989         133.477         17.3825 
        1.62604         132.521         17.2254 
        1.63218         132.211         17.0702 
        1.63831         131.015         16.9173 
        1.64444          130.31         16.7663 
        1.65059         129.208         16.6168 
        1.65673         128.442         16.4692 
        1.66285         127.708         16.3238 
        1.66898         126.735         16.1802 
        1.67512         126.337          16.038 
        1.68127         125.222         15.8974 
         1.6874         124.258         15.7588 
        1.69353         123.736         15.6219 
        1.69967         122.723         15.4864 
        1.70581          122.22         15.3525 
        1.71193         121.371         15.2207 
        1.71806         120.658         15.0901 
        1.72421         119.751         14.9609 
        1.73035         119.311         14.8333 
        1.73649         118.458         14.7072 
        1.74262         117.621         14.5827 
        1.74876         117.076         14.4596 
        1.75489         115.912         14.3381 
        1.76101         115.106         14.2181 
        1.76715         114.739         14.0992 
        1.77329         114.196         13.9816 
        1.77943         113.086         13.8653 
        1.78557         112.542         13.7505 
        1.79171         111.916          13.637 
        1.79785         111.069         13.5247 
        1.80399         110.284         13.4138 
        1.81012         109.661         13.3042 
        1.81625         109.207         13.1959 
        1.82239          108.55         13.0887 
        1.82853         107.631         12.9827 
        1.83466         107.092         12.8779 
        1.84078         106.574         12.7745 
        1.84692         105.367          12.672 
        1.85306         105.093         12.5705 
         1.8592         104.421         12.4703 
        1.86533         103.539         12.3713 
        1.87147         103.067         12.2732 
        1.87761         102.294         12.1761 
        1.88375         101.548         12.0802 
        1.88988          101.04         11.9854 
        1.89601         100.291         11.8916 
        1.90215         99.7944         11.7988 
        1.90829         99.1754         11.7069 
        1.91442         98.5576         11.6161 
        1.92056         97.8099         11.5263 
         1.9267         97.5343         11.4373 
        1.93284         96.7779         11.3492 
        1.93897         96.0785         11.2622 
        1.94509         95.6661         11.1764 
        1.95123         94.9316         11.0912 
        1.95737         94.5555         11.0068 
        1.96349         93.7221         10.9235 
        1.96964         93.1079         10.8409 
        1.97578         92.6545         10.7591 
        1.98192         92.2523         10.6782 
        1.98805         91.5498         10.5982 
        1.99419         91.0272         10.5191 
        2.00033         90.3524         10.4407 
        2.00647         90.0131         10.3631 
         2.0126         89.1217         10.2864 
        2.01874          88.727         10.2104 
        2.02488         88.2345         10.1351 
        2.03101         87.6221         10.0607 
        2.03714         87.0266         9.98714 
        2.04328         86.5596         9.91422 
        2.04941         86.0011         9.84208 
        2.05554         85.4319         9.77072 
        2.06167         85.0821         9.69997 
        2.06781         84.4407         9.62991 
        2.07396         84.0325         9.56045 
        2.08009         83.5495         9.49179 
        2.08622         82.8554         9.42388 
        2.09237         82.3251         9.35651 
        2.09851         81.9572         9.28978 
        2.10464         81.3443         9.22382 
        2.11077         81.0376         9.15858 
        2.11691         80.6929         9.09382 
        2.12305         79.8859         9.02969 
        2.12918          79.453         8.96633 
        2.13531         78.9529         8.90358 
        2.14145         78.5143         8.84128 
         2.1476         77.8577          8.7795 
        2.15372         77.5212         8.71862 
        2.15985          77.058         8.65826 
        2.16599         76.6301          8.5983 
        2.17213         76.0671         8.53897 
        2.17827         75.7466         8.48022 
         2.1844         75.1237         8.42207 
        2.19054         74.8702         8.36445 
        2.19666         74.5159         8.30745 
         2.2028         73.9344         8.25093 
        2.20893         73.5464         8.19491 
        2.21508         73.0987         8.13934 
        2.22122         72.6244         8.08428 
        2.22736         72.2562         8.02984 
        2.23349          71.942         7.97591 
        2.23962         71.4313         7.92246 
        2.24577         71.0548         7.86944 
         2.2519         70.6075         7.81699 
        2.25802         70.0046          7.7651 
        2.26417         69.7405         7.71354 
        2.27031         69.2356          7.6624 
        2.27644         68.8447         7.61187 
        2.28257         68.4598          7.5618 
        2.28872         68.1751         7.51209 
        2.29486          67.753         7.46284 
        2.30099         67.3643         7.41413 
        2.30712         66.9928         7.36583 
        2.31326         66.6883         7.31788 
         2.3194           66.17         7.27039 
        2.32553         65.8258          7.2234 
        2.33166         65.5291         7.17685 
         2.3378         65.0177         7.13064 
        2.34394         64.6311         7.08483 
        2.35007         64.3582         7.03948 
        2.35619         64.0268         6.99459 
        2.36233         63.6315         6.94998 
        2.36848         63.2052         6.90567 
        2.37462         62.8396         6.86184 
        2.38075         62.5606         6.81843 
        2.38689         62.2083         6.77536 
        2.39303         61.8126         6.73267 
        2.39916         61.5316          6.6904 
        2.40529         61.1851         6.64848 
        2.41143         60.7518          6.6069 
        2.41757         60.5636         6.56566 
         2.4237         60.3037         6.52484 
        2.42983         59.9126         6.48437 
        2.43598         59.4657         6.44414 
        2.44211         59.2549         6.40432 
        2.44823          58.914         6.36492 
        2.45437         58.4297         6.32574 
        2.46052         58.1649         6.28687 
        2.46665         57.9376         6.24839 
        2.47279         57.5379         6.21024 
        2.47892         57.3449         6.17239 
        2.48507         56.8844         6.13482 
         2.4912         56.6543         6.09763 
