# k  (h/Mpc)    Pcb(k)  (Mpc/h)^3    Pcb_linear(k)  (Mpc/h)^3
     0.00783031         218.634         219.863 
       0.013688         269.221          270.73 
       0.019231         272.323         272.924 
      0.0249154         250.525         250.985 
      0.0312784         216.276         216.053 
      0.0375637         183.628         183.215 
      0.0433917         159.516         159.289 
      0.0492413         142.736         142.213 
      0.0555754         129.701         129.736 
      0.0619321          121.08         120.558 
       0.067871         112.558         112.566 
      0.0738098         103.748         103.739 
      0.0800417         93.3829         93.3334 
      0.0862327         82.8291         82.6037 
      0.0921407         73.3478         73.0771 
      0.0982031         65.0855         64.9084 
       0.104506         58.9536         58.5429 
       0.110769         54.5963         54.1943 
       0.116806         51.5349         51.3216 
       0.122832         49.3656         49.0625 
       0.129052         46.8787         46.7242 
       0.135211          44.165         44.0046 
       0.141259         41.1327         40.8828 
       0.147318         37.8637         37.5194 
       0.153489         34.4975         34.1964 
       0.159709         31.5581         31.2743 
       0.165845         29.4225         28.9854 
       0.171974         27.5495         27.2918 
       0.178125         26.3529         26.0539 
       0.184229         25.4063          25.079 
        0.19034         24.3569         24.1505 
       0.196428         23.4155         23.1263 
       0.202534         22.3052         21.9452 
       0.208729         20.9268         20.6277 
       0.214876         19.5513         19.2995 
       0.220989         18.4021         18.0661 
       0.227147         17.2383         16.9922 
        0.23329          16.372           16.12 
       0.239377         15.6976         15.4327 
       0.245482         15.0848         14.8676 
       0.251667         14.6379         14.3549 
       0.257832         14.1039         13.8438 
       0.263955         13.5674         13.3015 
       0.270079         12.9973         12.7196 
        0.27624         12.4233         12.1135 
       0.282372         11.8213         11.5225 
        0.28843         11.2559         10.9806 
       0.294538          10.777         10.4964 
       0.300721         10.3732         10.0744 
        0.30691         9.96829         9.71063 
       0.313033         9.64697         9.39006 
       0.319153         9.28858         9.08793 
       0.325316         9.05737         8.78578 
        0.33145         8.74519         8.47872 
       0.337538         8.42274         8.16797 
       0.343633         8.09478         7.85779 
       0.349808         7.80685         7.55403 
       0.355968         7.52331         7.27066 
       0.362074         7.26115         7.01349 
       0.368217         7.02417         6.77965 
       0.374374         6.78569         6.56591 
       0.380519         6.60476         6.36727 
       0.386598         6.42226         6.17935 
       0.392688         6.24298         5.99445 
        0.39888         6.04928          5.8081 
       0.405048          5.8634         5.62438 
       0.411186         5.68906         5.44515 
       0.417313          5.4983         5.27299 
       0.423458         5.34346         5.10934 
       0.429607         5.17555         4.95546 
       0.435692         5.03131         4.81317 
       0.441815         4.89462          4.6786 
       0.447964           4.782         4.54998 
       0.454126         4.63697         4.42589 
       0.460267         4.51379         4.30578 
       0.466387         4.38612         4.18864 
        0.47254         4.27885         4.07343 
       0.478662         4.17329         3.96211 
       0.484765          4.0526         3.85514 
       0.490885         3.95162         3.75225 
       0.497035         3.86849         3.65346 
       0.503198         3.76316         3.55918 
       0.509342         3.67523         3.46947 
       0.515458         3.58155         3.38366 
       0.521598         3.49716          3.3003 
       0.527764         3.40587         3.21905 
       0.533884         3.33859         3.14072 
           0.54         3.25881         3.06468 
       0.546137          3.1871          2.9906 
       0.552299         3.11115         2.91853 
       0.558452           3.028         2.84905 
       0.564573         2.96775         2.78249 
       0.570708         2.90335         2.71828 
       0.576825         2.83469         2.65657 
       0.582926         2.78236         2.59703 
       0.589034          2.7048         2.53921 
       0.595184         2.65209         2.48266 
       0.601379           2.595         2.42734 
       0.607522         2.54908          2.3741 
       0.613639         2.50318         2.32264 
       0.619772         2.43791         2.27261 
       0.625918         2.39466         2.22397 
       0.632068         2.35158         2.17676 
       0.638161         2.29815         2.13138 
         0.6443         2.25122         2.08701 
       0.650464         2.20087         2.04379 
       0.656582         2.16323         2.00214 
       0.662703         2.12377         1.96166 
       0.668861         2.08643         1.92209 
       0.675024         2.04316         1.88358 
       0.681124         1.99964         1.84652 
       0.687237         1.96871         1.81037 
       0.693381         1.93252         1.77501 
       0.699536         1.88607         1.74054 
       0.705665         1.85292         1.70713 
       0.711789         1.82535         1.67463 
       0.717957         1.78659         1.64278 
        0.72409         1.75783         1.61194 
       0.730186          1.7246         1.58209 
       0.736317         1.70175         1.55285 
       0.742472         1.67094         1.52425 
       0.748622         1.63995         1.49641 
        0.75476         1.60516         1.46933 
       0.760888         1.58075         1.44297 
       0.767043         1.56105         1.41716 
       0.773185         1.52887         1.39203 
       0.779291         1.50456         1.36766 
       0.785407         1.48022         1.34385 
       0.791564         1.45677         1.32046 
       0.797719         1.43451         1.29764 
       0.803834         1.41251          1.2755 
       0.809972         1.38834         1.25381 
       0.816124         1.36365         1.23258 
       0.822261         1.33928         1.21191 
       0.828378         1.32112         1.19177 
       0.834502         1.30384         1.17208 
       0.840667         1.27847         1.15271 
       0.846816         1.25968         1.13383 
       0.852925         1.24425          1.1155 
       0.859047         1.22569         1.09754 
       0.865192         1.20459         1.07992 
       0.871341         1.18646         1.06268 
       0.877463         1.17269         1.04589 
       0.883569         1.15158         1.02952 
       0.889708         1.13444         1.01341 
       0.895864         1.11828         0.99761 
       0.902008         1.10101        0.982182 
       0.908149         1.08574        0.967091 
       0.914301         1.06466        0.952295 
       0.920448         1.05285        0.937825 
       0.926574         1.03651        0.923709 
       0.932687         1.02145        0.909915 
       0.938823         1.01213        0.896356 
       0.944975        0.997181        0.883044 
       0.951105        0.983223        0.870052 
       0.957225          0.9723        0.857345 
       0.963368        0.957859        0.844851 
       0.969511        0.942963        0.832607 
       0.975621        0.929063        0.820673 
       0.981748        0.920688        0.808944 
       0.987916        0.907515        0.797372 
        0.99406        0.893206         0.78607 
        1.00019        0.884542        0.775012 
        1.00632        0.869726        0.764178 
        1.01246        0.857942        0.753537 
        1.01859        0.848974        0.743116 
        1.02471        0.837612        0.732908 
        1.03085        0.829205        0.722857 
        1.03698        0.816196        0.713017 
        1.04314        0.806478         0.70332 
        1.04929        0.795627        0.693826 
        1.05541        0.787928        0.684548 
        1.06154        0.776644        0.675417 
        1.06769        0.766406         0.66644 
        1.07382        0.757789        0.657657 
        1.07993        0.746642        0.649052 
        1.08607         0.74128        0.640567 
        1.09222        0.729915        0.632225 
        1.09836        0.724322        0.624043 
        1.10449         0.71523        0.616015 
        1.11063        0.703847        0.608121 
        1.11677        0.695128        0.600369 
         1.1229        0.687409        0.592766 
        1.12903        0.679627        0.585288 
        1.13518        0.673366        0.577935 
        1.14131        0.663971        0.570712 
        1.14745        0.653525        0.563618 
        1.15359        0.649082        0.556643 
        1.15973        0.639438        0.549785 
        1.16584        0.635361        0.543073 
        1.17197        0.627253        0.536465 
        1.17811         0.62109        0.529946 
        1.18424        0.616292        0.523556 
        1.19038        0.606961        0.517253 
        1.19652        0.599351        0.511056 
        1.20267        0.595527        0.504962 
        1.20881        0.587168        0.498968 
        1.21495        0.582428        0.493082 
        1.22108        0.575768        0.487292 
         1.2272        0.570327        0.481608 
        1.23334        0.563695        0.476003 
        1.23949        0.557893        0.470475 
        1.24562        0.552612         0.46505 
        1.25174        0.546919        0.459719 
        1.25789        0.542146        0.454455 
        1.26402        0.534586        0.449285 
        1.27014        0.529937        0.444207 
        1.27628        0.525958        0.439193 
        1.28244        0.518265        0.434248 
        1.28858        0.513756        0.429386 
        1.29471        0.510467        0.424609 
        1.30084        0.503316         0.41991 
        1.30697        0.499072        0.415275 
        1.31312        0.492546        0.410704 
        1.31925        0.488795        0.406216 
        1.32537        0.485137        0.401801 
        1.33151        0.480641        0.397435 
        1.33765        0.476333        0.393137 
        1.34378        0.470886        0.388911 
        1.34992        0.467174        0.384744 
        1.35606        0.461769         0.38063 
         1.3622        0.458441        0.376583 
        1.36833        0.453985        0.372606 
        1.37445        0.448496        0.368687 
        1.38059        0.445023        0.364813 
        1.38675        0.443454        0.360986 
        1.39288        0.438253        0.357229 
        1.39901        0.434294        0.353528 
        1.40515        0.431047        0.349871 
         1.4113        0.426167        0.346267 
        1.41742        0.423054        0.342728 
        1.42355        0.420665        0.339232 
         1.4297        0.415971        0.335774 
        1.43585        0.412604        0.332367 
        1.44198        0.410362        0.329019 
        1.44809        0.406672        0.325725 
        1.45423         0.40255        0.322463 
        1.46036        0.399502        0.319252 
        1.46649        0.397403        0.316084 
        1.47263        0.393201        0.312957 
        1.47877        0.389835        0.309873 
        1.48491         0.38709        0.306826 
        1.49104          0.3836        0.303827 
        1.49718        0.381067        0.300865 
        1.50333        0.378806        0.297939 
        1.50947        0.375259        0.295057 
         1.5156        0.372432        0.292218 
        1.52172        0.370081        0.289417 
        1.52787        0.367118        0.286646 
          1.534        0.364578        0.283915 
        1.54013         0.36174        0.281223 
        1.54627         0.36015        0.278561 
        1.55241        0.356667        0.275933 
        1.55855        0.353544        0.273343 
        1.56467        0.353003        0.270793 
         1.5708        0.349366        0.268268 
        1.57695        0.345935        0.265773 
        1.58308        0.343693        0.263314 
        1.58922         0.34143        0.260886 
        1.59535        0.338793        0.258488 
         1.6015        0.336354        0.256118 
        1.60764         0.33455        0.253779 
        1.61376        0.331599        0.251475 
        1.61989        0.330611        0.249199 
        1.62604        0.329131        0.246945 
        1.63218        0.327408        0.244721 
        1.63831        0.324835         0.24253 
        1.64444        0.323592        0.240364 
        1.65059        0.321454         0.23822 
        1.65673        0.320124        0.236105 
        1.66285        0.319644        0.234021 
        1.66898        0.317906        0.231962 
        1.67512        0.316302        0.229924 
        1.68127        0.314913        0.227908 
         1.6874        0.314444        0.225921 
        1.69353        0.312403        0.223959 
        1.69967        0.312935        0.222015 
        1.70581        0.311399        0.220096 
        1.71193        0.310104        0.218206 
        1.71806        0.309428        0.216335 
        1.72421        0.309436        0.214482 
        1.73035        0.309096        0.212652 
        1.73649        0.308416        0.210845 
        1.74262        0.308288         0.20906 
        1.74876        0.308096        0.207295 
        1.75489        0.308264        0.205553 
        1.76101        0.308176        0.203833 
        1.76715        0.307564        0.202129 
        1.77329        0.308299        0.200443 
        1.77943        0.307273        0.198776 
        1.78557        0.308401         0.19713 
        1.79171        0.308927        0.195502 
        1.79785        0.310134        0.193893 
        1.80399        0.310217        0.192302 
        1.81012        0.311324        0.190731 
        1.81625        0.311697        0.189179 
        1.82239        0.312808        0.187641 
        1.82853        0.313892        0.186122 
        1.83466         0.31445         0.18462 
        1.84078        0.315866        0.183137 
        1.84692        0.316284        0.181668 
        1.85306        0.319021        0.180213 
         1.8592        0.320041        0.178777 
        1.86533        0.322423        0.177357 
        1.87147        0.323782         0.17595 
        1.87761        0.326123        0.174559 
        1.88375        0.327017        0.173184 
        1.88988        0.329231        0.171825 
        1.89601        0.332524        0.170481 
        1.90215        0.333646        0.169149 
        1.90829        0.335887        0.167833 
        1.91442        0.339765         0.16653 
        1.92056        0.342528        0.165242 
         1.9267        0.344792        0.163967 
        1.93284        0.346434        0.162705 
        1.93897        0.350213        0.161458 
        1.94509        0.355055        0.160227 
        1.95123        0.356041        0.159005 
        1.95737        0.360539        0.157796 
        1.96349        0.366268        0.156602 
        1.96964        0.368364        0.155417 
        1.97578        0.371346        0.154244 
        1.98192        0.377144        0.153085 
        1.98805         0.38108        0.151938 
        1.99419         0.38432        0.150803 
        2.00033        0.389815        0.149679 
        2.00647        0.394046        0.148567 
         2.0126        0.398893        0.147468 
        2.01874         0.40373        0.146378 
        2.02488        0.406774        0.145299 
        2.03101        0.413566        0.144232 
        2.03714         0.41995        0.143178 
        2.04328        0.425665        0.142132 
        2.04941         0.43126        0.141098 
        2.05554        0.437934        0.140075 
        2.06167        0.443263        0.139061 
        2.06781        0.450905        0.138056 
        2.07396        0.454677         0.13706 
        2.08009        0.462307        0.136076 
        2.08622        0.470908        0.135103 
        2.09237         0.47585        0.134137 
        2.09851        0.485763         0.13318 
        2.10464         0.49297        0.132235 
        2.11077        0.498511        0.131299 
        2.11691        0.510091        0.130371 
        2.12305        0.517623        0.129451 
        2.12918          0.5256        0.128543 
        2.13531        0.536927        0.127643 
        2.14145        0.542271         0.12675 
         2.1476        0.553151        0.125865 
        2.15372        0.563083        0.124992 
        2.15985        0.570995        0.124127 
        2.16599        0.581714        0.123267 
        2.17213        0.594626        0.122416 
        2.17827         0.60272        0.121574 
         2.1844         0.61505        0.120741 
        2.19054         0.62837        0.119914 
        2.19666        0.638637        0.119097 
         2.2028        0.649719        0.118287 
        2.20893        0.661968        0.117484 
        2.21508        0.672824        0.116687 
        2.22122        0.691678        0.115898 
        2.22736        0.700212        0.115117 
        2.23349        0.712562        0.114344 
        2.23962        0.727024        0.113578 
        2.24577        0.743641        0.112818 
         2.2519         0.75997        0.112066 
        2.25802        0.772969        0.111322 
        2.26417        0.790646        0.110583 
        2.27031        0.805374         0.10985 
        2.27644        0.818132        0.109125 
        2.28257        0.836323        0.108408 
        2.28872        0.855184        0.107695 
        2.29486        0.872768        0.106989 
        2.30099        0.894841        0.106291 
        2.30712        0.911883        0.105598 
        2.31326        0.935509        0.104911 
         2.3194        0.955128         0.10423 
        2.32553        0.969791        0.103556 
        2.33166        0.992184        0.102889 
         2.3378         1.01576        0.102226 
        2.34394         1.04227         0.10157 
        2.35007         1.05675         0.10092 
        2.35619         1.08628        0.100276 
        2.36233         1.10941       0.0996365 
        2.36848         1.13506       0.0990013 
        2.37462         1.15748       0.0983729 
        2.38075         1.18912       0.0977506 
        2.38689         1.21507       0.0971332 
        2.39303         1.23939       0.0965212 
        2.39916         1.26721        0.095915 
        2.40529         1.30575       0.0953142 
        2.41143         1.32529       0.0947181 
        2.41757          1.3652       0.0941267 
         2.4237          1.4005       0.0935416 
        2.42983         1.42381       0.0929614 
        2.43598         1.45802       0.0923847 
        2.44211          1.4941       0.0918137 
        2.44823         1.52801       0.0912489 
        2.45437         1.57272       0.0906873 
        2.46052         1.61056         0.09013 
        2.46665         1.64903       0.0895783 
        2.47279         1.68068       0.0890315 
        2.47892         1.72883       0.0884888 
        2.48507         1.77176       0.0879502 
         2.4912         1.81035       0.0874171 
