# k  (h/Mpc)    P(k)  (Mpc/h)^3    P_linear(k)  (Mpc/h)^3
     0.00783031         4202.27         4207.65 
       0.013688         5186.92         5171.66 
       0.019231         5221.96         5210.16 
      0.0249154         4769.21         4789.65 
      0.0312784         4128.06         4122.04 
      0.0375637         3513.01         3494.98 
      0.0433917         3030.26         3038.29 
      0.0492413         2726.82         2712.41 
      0.0555754         2450.15         2474.29 
      0.0619321         2324.06         2299.16 
       0.067871         2132.17          2146.7 
      0.0738098         1966.35          1978.3 
      0.0800417         1762.95         1779.84 
      0.0862327         1575.45          1575.2 
      0.0921407         1403.33         1393.51 
      0.0982031         1241.53         1237.73 
       0.104506         1142.63         1116.34 
       0.110769         1059.34         1033.41 
       0.116806         994.057         978.622 
       0.122832         954.684         935.538 
       0.129052         898.405         890.947 
       0.135211         849.535         839.086 
       0.141259         799.078         779.555 
       0.147318         741.712         715.418 
       0.153489         674.622         652.054 
       0.159709         624.242         596.333 
       0.165845         590.474         552.688 
       0.171974         551.021         520.392 
       0.178125         528.916         496.788 
       0.184229         511.336         478.199 
        0.19034         482.602         460.494 
       0.196428         471.448         440.963 
       0.202534         453.704         418.442 
       0.208729         427.096          393.32 
       0.214876         400.151         367.994 
       0.220989         382.651         344.474 
       0.227147         359.281         323.999 
        0.23329         343.185         307.367 
       0.239377         333.594         294.263 
       0.245482         313.968         283.487 
       0.251667          310.22         273.713 
       0.257832         301.098         263.966 
       0.263955         289.386         253.625 
       0.270079         278.498         242.531 
        0.27624         271.946         230.973 
       0.282372         260.215         219.705 
        0.28843         250.009          209.37 
       0.294538         239.627         200.138 
       0.300721         235.029         192.093 
        0.30691         224.184         185.156 
       0.313033         219.159         179.043 
       0.319153         209.963         173.283 
       0.325316         205.848         167.522 
        0.33145         198.696         161.666 
       0.337538         195.295         155.741 
       0.343633         188.472         149.827 
       0.349808         182.679         144.034 
       0.355968         178.706         138.632 
       0.362074         173.142         133.728 
       0.368217         168.801         129.269 
       0.374374         163.885         125.194 
       0.380519          160.43         121.407 
       0.386598         156.429         117.823 
       0.392688         153.691         114.298 
        0.39888         149.902         110.745 
       0.405048         146.393         107.241 
       0.411186         143.165         103.824 
       0.417313         139.399         100.541 
       0.423458         136.581          97.421 
       0.429607         133.203         94.4866 
       0.435692         128.746         91.7739 
       0.441815         127.813         89.2078 
       0.447964         125.731         86.7555 
       0.454126         120.295         84.3893 
       0.460267         119.009         82.0992 
       0.466387         116.841         79.8658 
        0.47254           114.8         77.6689 
       0.478662         113.374         75.5463 
       0.484765         110.036         73.5067 
       0.490885         108.138          71.545 
       0.497035         106.925         69.6611 
       0.503198         103.929         67.8637 
       0.509342         101.754         66.1531 
       0.515458         100.302         64.5168 
       0.521598         99.0104         62.9276 
       0.527764         97.3681         61.3782 
       0.533884         95.8433         59.8846 
           0.54         94.0179          58.435 
       0.546137         93.0964         57.0222 
       0.552299          91.753         55.6482 
       0.558452         89.3543         54.3234 
       0.564573         87.8014         53.0541 
       0.570708         86.8732         51.8301 
       0.576825         85.3232         50.6532 
       0.582926          83.747          49.518 
       0.589034         82.1349         48.4156 
       0.595184         81.1607         47.3372 
       0.601379         80.1447         46.2825 
       0.607522         78.2716         45.2673 
       0.613639         78.0213         44.2862 
       0.619772         76.1645         43.3322 
       0.625918         75.6566         42.4048 
       0.632068         74.6206         41.5047 
       0.638161         73.5726         40.6394 
         0.6443         72.5066         39.7934 
       0.650464         71.5863         38.9693 
       0.656582         70.6754         38.1751 
       0.662703         69.3728         37.4033 
       0.668861         68.5532         36.6488 
       0.675024         67.7022         35.9146 
       0.681124         66.6499         35.2079 
       0.687237         65.6077         34.5186 
       0.693381         65.0338         33.8444 
       0.699536         63.9288         33.1871 
       0.705665         64.1708         32.5501 
       0.711789         62.4851         31.9305 
       0.717957         61.9435          31.323 
        0.72409         61.0945          30.735 
       0.730186         60.1682          30.166 
       0.736317         59.9715         29.6084 
       0.742472         59.0197         29.0631 
       0.748622         58.5012         28.5323 
        0.75476         57.8424          28.016 
       0.760888         56.9582         27.5133 
       0.767043         56.3995         27.0211 
       0.773185         55.6453         26.5421 
       0.779291         55.4452         26.0775 
       0.785407         54.7693         25.6234 
       0.791564         53.9543         25.1773 
       0.797719          53.121         24.7422 
       0.803834         52.9679         24.3202 
       0.809972         52.1353         23.9066 
       0.816124         51.4417         23.5018 
       0.822261         51.1112         23.1076 
       0.828378         50.6847         22.7236 
       0.834502         50.1263         22.3482 
       0.840667         49.6886         21.9788 
       0.846816         48.9765         21.6189 
       0.852925         48.5337         21.2694 
       0.859047         47.9576          20.927 
       0.865192         47.6483          20.591 
       0.871341          47.441         20.2622 
       0.877463         46.4238         19.9422 
       0.883569         46.0979           19.63 
       0.889708         45.8162         19.3228 
       0.895864         45.3727         19.0216 
       0.902008         44.9576         18.7274 
       0.908149         44.5797         18.4396 
       0.914301          44.388         18.1575 
       0.920448         43.7049         17.8816 
       0.926574         43.3614         17.6125 
       0.932687         43.0005         17.3495 
       0.938823         42.4164         17.0909 
       0.944975         42.2406         16.8371 
       0.951105         41.8169         16.5894 
       0.957225         41.3405         16.3471 
       0.963368         41.2085         16.1089 
       0.969511         40.8074         15.8754 
       0.975621         40.4974         15.6479 
       0.981748         39.9729         15.4242 
       0.987916         39.8436         15.2036 
        0.99406         39.4244         14.9881 
        1.00019         38.9683         14.7773 
        1.00632         38.7656         14.5707 
        1.01246         38.4935         14.3678 
        1.01859         38.0057         14.1691 
        1.02471          37.999         13.9744 
        1.03085         37.5906         13.7828 
        1.03698         37.1262         13.5952 
        1.04314         36.8277         13.4103 
        1.04929         36.5823         13.2293 
        1.05541          36.217         13.0524 
        1.06154         36.1162         12.8783 
        1.06769         35.7897         12.7071 
        1.07382         35.4926         12.5396 
        1.07993         35.3687         12.3756 
        1.08607         34.9353         12.2138 
        1.09222         34.8011         12.0547 
        1.09836         34.4473         11.8987 
        1.10449         34.1964         11.7456 
        1.11063         33.8039         11.5951 
        1.11677         33.6432         11.4473 
         1.1229         33.5417         11.3023 
        1.12903         33.0356         11.1598 
        1.13518         32.8799         11.0195 
        1.14131         32.8146         10.8818 
        1.14745         32.4875         10.7466 
        1.15359         32.3967         10.6136 
        1.15973         31.9491         10.4828 
        1.16584         31.6737         10.3548 
        1.17197         31.7036         10.2288 
        1.17811         31.3431         10.1045 
        1.18424         31.0506         9.98269 
        1.19038          30.995         9.86251 
        1.19652         30.7924         9.74436 
        1.20267         30.5713         9.62816 
        1.20881         30.4065         9.51388 
        1.21495         30.1602         9.40164 
        1.22108         29.9534         9.29124 
         1.2272         29.6483         9.18288 
        1.23334         29.5348         9.07601 
        1.23949         29.2937         8.97059 
        1.24562         29.1645         8.86715 
        1.25174         29.0106          8.7655 
        1.25789         28.8022         8.66515 
        1.26402         28.6438         8.56655 
        1.27014         28.4031         8.46974 
        1.27628         28.1967         8.37415 
        1.28244         28.0988         8.27985 
        1.28858         27.9662         8.18714 
        1.29471         27.7208         8.09606 
        1.30084         27.6028         8.00647 
        1.30697         27.4137         7.91809 
        1.31312         27.1309         7.83093 
        1.31925         27.0518         7.74537 
        1.32537         26.9995         7.66117 
        1.33151          26.758         7.57793 
        1.33765         26.6827         7.49598 
        1.34378         26.5073          7.4154 
        1.34992         26.1793         7.33596 
        1.35606         26.1323         7.25751 
         1.3622         25.9791         7.18035 
        1.36833         25.8297         7.10451 
        1.37445         25.7891          7.0298 
        1.38059         25.6404         6.95593 
        1.38675         25.3591         6.88296 
        1.39288         25.3232         6.81133 
        1.39901         25.0933         6.74075 
        1.40515         25.0626         6.67102 
         1.4113         24.8918         6.60231 
        1.41742         24.6821         6.53483 
        1.42355          24.655         6.46817 
         1.4297         24.5083         6.40224 
        1.43585         24.4488         6.33727 
        1.44198         24.2307         6.27344 
        1.44809         24.1363         6.21062 
        1.45423         24.0695         6.14843 
        1.46036         23.9748         6.08721 
        1.46649         23.8181          6.0268 
        1.47263         23.6683         5.96717 
        1.47877          23.578         5.90837 
        1.48491         23.4258         5.85028 
        1.49104         23.4235         5.79309 
        1.49718         23.2142         5.73663 
        1.50333         23.1719         5.68083 
        1.50947         23.0712         5.62588 
         1.5156          22.943         5.57175 
        1.52172         22.7884         5.51833 
        1.52787         22.7728         5.46551 
          1.534         22.6349         5.41344 
        1.54013         22.5053          5.3621 
        1.54627          22.452         5.31135 
        1.55241         22.3435         5.26124 
        1.55855         22.1932         5.21185 
        1.56467         22.1401         5.16323 
         1.5708         22.0905          5.1151 
        1.57695         21.8926         5.06751 
        1.58308         21.9498         5.02064 
        1.58922         21.7977         4.97433 
        1.59535         21.7198         4.92862 
         1.6015         21.6071         4.88343 
        1.60764          21.563         4.83882 
        1.61376         21.4588          4.7949 
        1.61989         21.3226         4.75149 
        1.62604         21.3676         4.70853 
        1.63218         21.2136         4.66612 
        1.63831         21.1813         4.62434 
        1.64444         21.0725         4.58305 
        1.65059         21.0058         4.54217 
        1.65673         20.9416         4.50183 
        1.66285         20.8772          4.4621 
        1.66898         20.7971         4.42284 
        1.67512         20.7733         4.38397 
        1.68127         20.6819         4.34554 
         1.6874         20.6014         4.30765 
        1.69353         20.5731         4.27024 
        1.69967         20.4393         4.23318 
        1.70581         20.4499         4.19658 
        1.71193         20.3418         4.16055 
        1.71806         20.3057         4.12487 
        1.72421         20.2138         4.08954 
        1.73035         20.2161         4.05466 
        1.73649         20.1294          4.0202 
        1.74262         20.1363         3.98616 
        1.74876         20.0069          3.9525 
        1.75489          19.978          3.9193 
        1.76101         19.9552         3.88649 
        1.76715         19.9318         3.85401 
        1.77329         19.8828         3.82187 
        1.77943         19.7676         3.79007 
        1.78557         19.7742         3.75869 
        1.79171         19.7393         3.72766 
        1.79785         19.6393         3.69697 
        1.80399         19.6404         3.66664 
        1.81012         19.6115         3.63669 
        1.81625         19.5384         3.60709 
        1.82239         19.5357         3.57777 
        1.82853         19.4393          3.5488 
        1.83466         19.4273         3.52017 
        1.84078         19.3405         3.49189 
        1.84692         19.3761         3.46388 
        1.85306         19.3046         3.43614 
         1.8592         19.2921         3.40875 
        1.86533         19.2713         3.38167 
        1.87147          19.211         3.35486 
        1.87761         19.2315         3.32833 
        1.88375         19.1562         3.30211 
        1.88988         19.1261         3.27621 
        1.89601          19.105         3.25057 
        1.90215         19.0831         3.22518 
        1.90829         19.0646         3.20008 
        1.91442         19.0167         3.17524 
        1.92056         18.9826         3.15069 
         1.9267         19.0163         3.12637 
        1.93284         18.9215          3.1023 
        1.93897         18.9314         3.07852 
        1.94509         18.9119         3.05505 
        1.95123          18.855         3.03176 
        1.95737         18.8703          3.0087 
        1.96349         18.8341         2.98594 
        1.96964         18.8194         2.96334 
        1.97578         18.8222         2.94098 
        1.98192         18.7846         2.91888 
        1.98805         18.7983         2.89702 
        1.99419         18.7214         2.87537 
        2.00033         18.7432         2.85394 
        2.00647         18.7226         2.83274 
         2.0126         18.6526         2.81178 
        2.01874         18.6881         2.79101 
        2.02488         18.6801         2.77042 
        2.03101         18.6982         2.75009 
        2.03714          18.671         2.72997 
        2.04328         18.6159         2.71004 
        2.04941         18.6199         2.69032 
        2.05554           18.62         2.67082 
        2.06167         18.5855         2.65148 
        2.06781         18.6154         2.63233 
        2.07396         18.5932         2.61334 
        2.08009         18.5705         2.59457 
        2.08622          18.563         2.57601 
        2.09237         18.5487         2.55759 
        2.09851         18.5411         2.53935 
        2.10464         18.5015         2.52132 
        2.11077         18.5007         2.50349 
        2.11691         18.4981         2.48579 
        2.12305         18.4798         2.46826 
        2.12918         18.4871         2.45094 
        2.13531         18.4862         2.43378 
        2.14145         18.4805         2.41675 
         2.1476         18.4812         2.39987 
        2.15372           18.49         2.38323 
        2.15985         18.4337         2.36673 
        2.16599         18.4455         2.35034 
        2.17213         18.4339         2.33412 
        2.17827         18.4783         2.31806 
         2.1844         18.4539         2.30216 
        2.19054          18.394         2.28641 
        2.19666         18.4401         2.27083 
         2.2028         18.4658         2.25538 
        2.20893          18.361         2.24007 
        2.21508         18.4065         2.22488 
        2.22122         18.3945         2.20983 
        2.22736         18.3824         2.19495 
        2.23349         18.4237         2.18021 
        2.23962         18.3563          2.1656 
        2.24577         18.3485         2.15111 
         2.2519         18.4011         2.13677 
        2.25802         18.3905         2.12258 
        2.26417         18.3372         2.10849 
        2.27031         18.3288         2.09451 
        2.27644         18.3075          2.0807 
        2.28257          18.364         2.06701 
        2.28872         18.3245         2.05342 
        2.29486         18.3264         2.03996 
        2.30099         18.3455         2.02665 
        2.30712         18.3707         2.01344 
        2.31326          18.328         2.00034 
         2.3194         18.3019         1.98736 
        2.32553         18.3127         1.97451 
        2.33166         18.2944         1.96179 
         2.3378          18.249         1.94916 
        2.34394         18.2697         1.93663 
        2.35007         18.2586         1.92424 
        2.35619         18.2377         1.91197 
        2.36233         18.2522         1.89977 
        2.36848         18.2496         1.88766 
        2.37462         18.2457         1.87568 
        2.38075         18.2276         1.86381 
        2.38689         18.2761         1.85204 
        2.39303         18.2264         1.84037 
        2.39916         18.2285         1.82881 
        2.40529         18.2222         1.81736 
        2.41143         18.1925         1.80599 
        2.41757         18.1591         1.79472 
         2.4237         18.2013         1.78356 
        2.42983         18.1623          1.7725 
        2.43598         18.1652          1.7615 
        2.44211         18.1643         1.75061 
        2.44823         18.0999         1.73985 
        2.45437         18.1357         1.72914 
        2.46052         18.1221         1.71851 
        2.46665         18.1126         1.70799 
        2.47279         18.0723         1.69757 
        2.47892         18.1035         1.68722 
        2.48507         18.0736         1.67695 
         2.4912         18.0853         1.66678 
