# k  (h/Mpc)    Pcb(k)  (Mpc/h)^3    Pcb_linear(k)  (Mpc/h)^3
     0.00783031         13529.3         13636.1 
       0.013688         16829.9           16757 
       0.019231         16849.5         16874.4 
      0.0249154         15230.4         15508.3 
      0.0312784         13211.2         13343.7 
      0.0375637         11282.8         11312.2 
      0.0433917         9650.71         9833.04 
      0.0492413         8719.58         8777.75 
      0.0555754         7747.75         8006.68 
      0.0619321         7438.97         7439.64 
       0.067871         6740.12         6946.06 
      0.0738098         6216.95         6401.01 
      0.0800417         5545.61         5758.74 
      0.0862327          4990.9         5096.52 
      0.0921407         4496.54         4508.62 
      0.0982031         3979.93         4004.55 
       0.104506         3716.89         3611.75 
       0.110769         3445.63         3343.42 
       0.116806         3241.43         3166.15 
       0.122832         3095.33         3026.74 
       0.129052         2887.71         2882.46 
       0.135211         2739.64         2714.66 
       0.141259          2604.8         2522.05 
       0.147318         2438.25         2314.55 
       0.153489         2221.26         2109.54 
       0.159709         2083.99         1929.27 
       0.165845         1996.74         1788.06 
       0.171974          1882.1         1683.57 
       0.178125         1796.75          1607.2 
       0.184229         1730.43         1547.06 
        0.19034         1633.51         1489.78 
       0.196428         1602.15         1426.59 
       0.202534         1541.84         1353.73 
       0.208729         1467.34         1272.46 
       0.214876         1396.37         1190.52 
       0.220989         1347.23         1114.43 
       0.227147          1285.9         1048.19 
        0.23329         1232.36         994.379 
       0.239377         1210.65         951.983 
       0.245482          1133.6         917.121 
       0.251667         1129.39         885.499 
       0.257832         1089.62         853.969 
       0.263955         1052.56         820.515 
       0.270079         1015.14         784.619 
        0.27624          1003.8         747.231 
       0.282372         961.177         710.775 
        0.28843         949.335         677.341 
       0.294538         901.465         647.473 
       0.300721         896.093         621.444 
        0.30691          859.52         599.004 
       0.313033         844.305         579.229 
       0.319153         823.271         560.591 
       0.325316         798.708         541.953 
        0.33145         778.868         523.011 
       0.337538         768.471         503.842 
       0.343633          747.29         484.708 
       0.349808         721.681         465.971 
       0.355968         716.907         448.491 
       0.362074          706.94         432.627 
       0.368217         686.869         418.202 
       0.374374         659.401         405.017 
       0.380519         658.265         392.765 
       0.386598         641.385         381.172 
       0.392688         639.082         369.767 
        0.39888         619.801         358.272 
       0.405048         610.472         346.939 
       0.411186         601.189         335.883 
       0.417313          588.07         325.263 
       0.423458         579.179         315.168 
       0.429607         569.338         305.676 
       0.435692         556.492         296.899 
       0.441815         552.637         288.598 
       0.447964         540.776         280.664 
       0.454126         531.338         273.009 
       0.460267         521.376         265.601 
       0.466387         515.259         258.375 
        0.47254         506.993         251.268 
       0.478662         504.632         244.401 
       0.484765         488.716         237.802 
       0.490885         485.045         231.456 
       0.497035         475.391         225.362 
       0.503198         470.391         219.547 
       0.509342         466.646         214.013 
       0.515458         461.891         208.719 
       0.521598         451.355         203.578 
       0.527764         443.183         198.565 
       0.533884          441.51         193.734 
           0.54         435.124         189.044 
       0.546137         433.405         184.473 
       0.552299         425.384         180.028 
       0.558452         422.821         175.742 
       0.564573         416.601         171.636 
       0.570708         410.267         167.676 
       0.576825         400.721         163.869 
       0.582926         399.755         160.196 
       0.589034         396.685          156.63 
       0.595184         393.066         153.141 
       0.601379         387.473         149.729 
       0.607522         381.477         146.445 
       0.613639         380.382         143.271 
       0.619772         371.047         140.184 
       0.625918         370.056         137.184 
       0.632068          364.47         134.272 
       0.638161         362.766         131.473 
         0.6443         356.502         128.736 
       0.650464         353.737          126.07 
       0.656582         351.609         123.501 
       0.662703         349.827         121.004 
       0.668861         343.415         118.563 
       0.675024         340.172         116.188 
       0.681124         337.857         113.901 
       0.687237         334.514         111.671 
       0.693381         329.883          109.49 
       0.699536         325.787         107.364 
       0.705665         323.808         105.303 
       0.711789         321.396         103.299 
       0.717957         318.993         101.334 
        0.72409         315.842         99.4312 
       0.730186          312.35         97.5902 
       0.736317         309.077         95.7865 
       0.742472         307.583         94.0224 
       0.748622         304.531          92.305 
        0.75476         301.146         90.6347 
       0.760888         297.544         89.0086 
       0.767043         297.483         87.4163 
       0.773185          293.77         85.8665 
       0.779291         289.082         84.3634 
       0.785407         288.617         82.8944 
       0.791564         284.945         81.4514 
       0.797719         282.347         80.0437 
       0.803834         280.464         78.6785 
       0.809972         278.572         77.3405 
       0.816124         278.565          76.031 
       0.822261         274.361         74.7556 
       0.828378         272.346         73.5134 
       0.834502         270.412         72.2987 
       0.840667         266.972         71.1038 
       0.846816         265.255         69.9395 
       0.852925         263.672         68.8088 
       0.859047         261.545          67.701 
       0.865192         258.773         66.6141 
       0.871341         256.673         65.5505 
       0.877463         254.734         64.5152 
       0.883569         253.561         63.5051 
       0.889708         251.076         62.5115 
       0.895864         248.546         61.5368 
       0.902008          247.05         60.5851 
       0.908149         245.356         59.6543 
       0.914301         242.565         58.7416 
       0.920448         240.719          57.849 
       0.926574         238.466         56.9783 
       0.932687         238.661         56.1274 
       0.938823         235.559          55.291 
       0.944975         233.883         54.4699 
       0.951105         232.281         53.6685 
       0.957225         230.846         52.8847 
       0.963368             228          52.114 
       0.969511         227.074         51.3587 
       0.975621         224.351         50.6226 
       0.981748         224.636         49.8991 
       0.987916         222.372         49.1852 
        0.99406         219.422         48.4881 
        1.00019         219.269          47.806 
        1.00632         217.309         47.1377 
        1.01246         215.614         46.4813 
        1.01859         215.471         45.8386 
        1.02471         212.349         45.2088 
        1.03085          210.24         44.5888 
        1.03698         209.782         43.9819 
        1.04314         207.232         43.3837 
        1.04929         206.255         42.7981 
        1.05541         205.765         42.2258 
        1.06154         203.078         41.6626 
        1.06769         202.822         41.1088 
        1.07382         201.368          40.567 
        1.07993         199.478         40.0363 
        1.08607         198.552         39.5128 
        1.09222         197.437         38.9983 
        1.09836         195.661         38.4936 
        1.10449          193.36         37.9984 
        1.11063         191.599         37.5115 
        1.11677         191.412         37.0333 
         1.1229         189.824         36.5643 
        1.12903          188.44          36.103 
        1.13518          187.28         35.6494 
        1.14131         185.786         35.2039 
        1.14745         185.104         34.7663 
        1.15359         183.663         34.3361 
        1.15973         182.779          33.913 
        1.16584         180.656          33.499 
        1.17197         180.248         33.0914 
        1.17811         178.412         32.6893 
        1.18424         177.477         32.2951 
        1.19038         176.942         31.9063 
        1.19652         175.234         31.5241 
        1.20267         174.562         31.1481 
        1.20881         173.245         30.7784 
        1.21495         172.011         30.4153 
        1.22108          170.95         30.0582 
         1.2272          169.47         29.7076 
        1.23334         168.486         29.3619 
        1.23949         167.491         29.0208 
        1.24562         166.432         28.6862 
        1.25174         164.642         28.3574 
        1.25789         163.784         28.0327 
        1.26402         162.563         27.7137 
        1.27014         161.199         27.4005 
        1.27628         160.694         27.0913 
        1.28244         160.254         26.7862 
        1.28858         158.653         26.4863 
        1.29471         156.997         26.1917 
        1.30084         156.811         25.9018 
        1.30697         155.326         25.6159 
        1.31312         154.371         25.3339 
        1.31925         153.608         25.0571 
        1.32537         152.532         24.7847 
        1.33151         151.152         24.5154 
        1.33765         150.413         24.2503 
        1.34378         149.692         23.9896 
        1.34992         148.757         23.7326 
        1.35606         148.174         23.4788 
         1.3622          146.88         23.2292 
        1.36833         145.556         22.9839 
        1.37445         144.813         22.7422 
        1.38059         143.611         22.5032 
        1.38675         143.193         22.2671 
        1.39288         142.217         22.0354 
        1.39901         141.826         21.8071 
        1.40515          140.47         21.5815 
         1.4113         139.303         21.3592 
        1.41742         138.352         21.1409 
        1.42355         137.542         20.9252 
         1.4297         136.729          20.712 
        1.43585         135.991         20.5018 
        1.44198         135.036         20.2953 
        1.44809         134.385          20.092 
        1.45423         133.481         19.8909 
        1.46036         132.827         19.6928 
        1.46649         131.678         19.4974 
        1.47263         131.057         19.3045 
        1.47877         130.226         19.1142 
        1.48491         129.053         18.9263 
        1.49104         128.637         18.7413 
        1.49718         127.298         18.5586 
        1.50333         126.803         18.3781 
        1.50947         126.324         18.2004 
         1.5156         125.362         18.0252 
        1.52172         124.371         17.8524 
        1.52787         123.749         17.6815 
          1.534         123.115         17.5131 
        1.54013         122.087          17.347 
        1.54627         121.547         17.1828 
        1.55241         120.565         17.0207 
        1.55855         119.671         16.8609 
        1.56467         119.268         16.7036 
         1.5708         118.507         16.5479 
        1.57695         117.745          16.394 
        1.58308         117.148         16.2423 
        1.58922         116.629         16.0925 
        1.59535         115.638         15.9446 
         1.6015         115.209         15.7984 
        1.60764          114.28         15.6541 
        1.61376         113.761          15.512 
        1.61989         112.788         15.3716 
        1.62604         112.301         15.2326 
        1.63218         111.825         15.0954 
        1.63831          110.93         14.9602 
        1.64444         110.376         14.8267 
        1.65059         109.646         14.6944 
        1.65673         108.821         14.5639 
        1.66285         108.373         14.4354 
        1.66898         107.751         14.3084 
        1.67512         107.226         14.1826 
        1.68127         106.412         14.0583 
         1.6874         105.499         13.9357 
        1.69353         105.199         13.8147 
        1.69967         104.478         13.6948 
        1.70581         104.096         13.5764 
        1.71193         103.469         13.4599 
        1.71806         102.614         13.3444 
        1.72421         102.035         13.2301 
        1.73035         101.543         13.1173 
        1.73649         100.794         13.0058 
        1.74262         100.223         12.8957 
        1.74876         99.8297         12.7868 
        1.75489         98.8085         12.6794 
        1.76101         98.3158         12.5732 
        1.76715         97.8738         12.4682 
        1.77329         97.5199         12.3642 
        1.77943         96.4648         12.2613 
        1.78557         96.1513         12.1598 
        1.79171         95.4481         12.0594 
        1.79785         95.0101         11.9601 
        1.80399         94.3082          11.862 
        1.81012         93.7856         11.7651 
        1.81625         93.3332         11.6693 
        1.82239          92.892         11.5745 
        1.82853          92.235         11.4808 
        1.83466         91.6703         11.3881 
        1.84078         91.3148         11.2967 
        1.84692         90.4806          11.206 
        1.85306         90.0435         11.1163 
         1.8592         89.6858         11.0277 
        1.86533         88.9597         10.9401 
        1.87147         88.5203         10.8534 
        1.87761          87.998         10.7675 
        1.88375         87.3059         10.6827 
        1.88988         86.9242         10.5989 
        1.89601         86.3281          10.516 
        1.90215         85.8326         10.4338 
        1.90829         85.3786         10.3526 
        1.91442         84.9272         10.2723 
        1.92056         84.2861         10.1928 
         1.9267         84.0384         10.1142 
        1.93284         83.4534         10.0363 
        1.93897         82.8388         9.95937 
        1.94509         82.5766         9.88343 
        1.95123          81.964         9.80809 
        1.95737         81.6143         9.73348 
        1.96349          80.956         9.65984 
        1.96964         80.4995         9.58675 
        1.97578         80.0316         9.51439 
        1.98192         79.8726         9.44292 
        1.98805         79.2432         9.37218 
        1.99419         78.8437         9.30217 
        2.00033         78.3138         9.23283 
        2.00647         77.9376         9.16423 
         2.0126         77.3641         9.09643 
        2.01874         76.7831         9.02923 
        2.02488         76.4061         8.96264 
        2.03101         75.9771         8.89685 
        2.03714         75.5915         8.83178 
        2.04328         75.0982         8.76729 
        2.04941         74.7219         8.70351 
        2.05554         74.3058          8.6404 
        2.06167         73.8818         8.57783 
        2.06781         73.3618         8.51588 
        2.07396         72.9299         8.45445 
        2.08009          72.663         8.39373 
        2.08622         72.0638         8.33369 
        2.09237         71.6313         8.27411 
        2.09851          71.405          8.2151 
        2.10464         70.8079         8.15677 
        2.11077         70.5591         8.09908 
        2.11691         70.2553         8.04181 
        2.12305         69.6473          7.9851 
        2.12918         69.2905         7.92907 
        2.13531         68.9232         7.87357 
        2.14145         68.5938         7.81848 
         2.1476         68.0779         7.76385 
        2.15372          67.789         7.71002 
        2.15985         67.3266         7.65664 
        2.16599         67.0144         7.60362 
        2.17213         66.5456         7.55115 
        2.17827          66.119         7.49919 
         2.1844         65.8102         7.44777 
        2.19054         65.5789         7.39682 
        2.19666         65.1723         7.34641 
         2.2028          64.945         7.29643 
        2.20893         64.4496         7.24689 
        2.21508          64.126         7.19775 
        2.22122         63.7133         7.14906 
        2.22736         63.4448         7.10092 
        2.23349         62.9914         7.05323 
        2.23962         62.6787         7.00596 
        2.24577         62.3874         6.95908 
         2.2519         62.0728         6.91269 
        2.25802         61.6137         6.86681 
        2.26417          61.234         6.82121 
        2.27031         60.9545         6.77599 
        2.27644          60.604          6.7313 
        2.28257         60.3208         6.68703 
        2.28872         59.9676         6.64307 
        2.29486         59.5324         6.59951 
        2.30099          59.249         6.55644 
        2.30712         58.9988         6.51373 
        2.31326         58.7769         6.47133 
         2.3194         58.4038         6.42933 
        2.32553         58.0333         6.38778 
        2.33166         57.7164         6.34661 
         2.3378         57.3827         6.30575 
        2.34394         57.1086         6.26524 
        2.35007         56.7186         6.22514 
        2.35619         56.4868         6.18544 
        2.36233         56.1971         6.14599 
        2.36848         55.8504          6.1068 
        2.37462         55.4935         6.06804 
        2.38075         55.3923         6.02966 
        2.38689         55.0162         5.99157 
        2.39303          54.716         5.95382 
        2.39916         54.3827         5.91643 
        2.40529         54.1907         5.87937 
        2.41143         53.8483          5.8426 
        2.41757         53.5596         5.80612 
         2.4237         53.3697         5.77003 
        2.42983         53.0662         5.73424 
        2.43598         52.7101         5.69867 
        2.44211          52.494         5.66345 
        2.44823         52.1266         5.62861 
        2.45437         51.8543         5.59397 
        2.46052           51.64         5.55959 
        2.46665         51.4661         5.52556 
        2.47279         51.0916         5.49183 
        2.47892         50.9471         5.45836 
        2.48507         50.5491         5.42513 
         2.4912         50.3689         5.39225 
