# k  (h/Mpc)    P(k)  (Mpc/h)^3    P_linear(k)  (Mpc/h)^3
     0.00783031         10447.3         10464.6 
       0.013688         12960.6         12856.5 
       0.019231         12991.9         12949.3 
      0.0249154           11775         11902.5 
      0.0312784         10207.7         10242.4 
      0.0375637          8708.3         8683.74 
      0.0433917          7465.5         7548.69 
      0.0492413         6737.59         6738.82 
      0.0555754         6005.38         6147.06 
      0.0619321         5748.15         5711.85 
       0.067871         5225.64         5332.99 
      0.0738098         4819.13         4914.59 
      0.0800417         4304.48         4421.51 
      0.0862327          3866.2          3913.1 
      0.0921407          3471.6         3461.74 
      0.0982031         3070.84         3074.72 
       0.104506         2857.31         2773.15 
       0.110769         2648.52         2567.12 
       0.116806          2488.2         2431.02 
       0.122832         2380.89         2323.99 
       0.129052         2225.87         2213.21 
       0.135211         2110.26         2084.38 
       0.141259         2000.36         1936.49 
       0.147318         1867.47         1777.17 
       0.153489         1700.03         1619.76 
       0.159709         1589.94         1481.34 
       0.165845          1517.4         1372.92 
       0.171974         1426.02          1292.7 
       0.178125         1363.53         1234.06 
       0.184229         1315.62         1187.88 
        0.19034         1238.26          1143.9 
       0.196428         1215.27         1095.38 
       0.202534         1170.78         1039.44 
       0.208729         1110.41         977.032 
       0.214876          1050.8         914.118 
       0.220989         1012.44         855.694 
       0.227147         961.722         804.831 
        0.23329         921.041         763.517 
       0.239377         902.452         730.964 
       0.245482         843.986         704.196 
       0.251667         839.656         679.916 
       0.257832         811.905         655.705 
       0.263955         783.612         630.018 
       0.270079         755.089         602.457 
        0.27624         745.616         573.749 
       0.282372         713.667         545.756 
        0.28843         699.169         520.084 
       0.294538         664.608         497.152 
       0.300721         659.792         477.167 
        0.30691         630.943         459.934 
       0.313033         619.863         444.751 
       0.319153         601.023         430.442 
       0.325316         584.068          416.13 
        0.33145         567.673         401.585 
       0.337538         561.171         386.867 
       0.343633         543.499         372.175 
       0.349808         525.194         357.787 
       0.355968         520.894         344.366 
       0.362074         510.991         332.186 
       0.368217         497.574          321.11 
       0.374374         477.726         310.986 
       0.380519         474.735         301.578 
       0.386598         463.247         292.677 
       0.392688         460.381         283.919 
        0.39888         447.067         275.094 
       0.405048         438.756         266.391 
       0.411186         430.816         257.903 
       0.417313          422.01         249.748 
       0.423458         415.641         241.997 
       0.429607         407.221         234.708 
       0.435692         397.131         227.969 
       0.441815         394.549         221.595 
       0.447964         386.473         215.504 
       0.454126         375.631         209.626 
       0.460267         370.578         203.937 
       0.466387         366.067         198.389 
        0.47254         358.438         192.932 
       0.478662         357.424         187.659 
       0.484765         346.098         182.593 
       0.490885         342.604          177.72 
       0.497035         336.832          173.04 
       0.503198         330.822         168.576 
       0.509342         328.517         164.326 
       0.515458         324.063         160.262 
       0.521598         318.041         156.314 
       0.527764         312.513         152.465 
       0.533884         310.201         148.755 
           0.54         305.518         145.154 
       0.546137         304.433         141.645 
       0.552299         298.155         138.232 
       0.558452         295.728         134.941 
       0.564573         291.011         131.788 
       0.570708         285.818         128.747 
       0.576825         281.167         125.824 
       0.582926         278.633         123.004 
       0.589034         276.097         120.266 
       0.595184           273.4         117.587 
       0.601379         270.073         114.967 
       0.607522         265.461         112.445 
       0.613639         263.912         110.008 
       0.619772         257.828         107.638 
       0.625918         256.688         105.335 
       0.632068         252.919         103.099 
       0.638161         251.634          100.95 
         0.6443         247.538          98.848 
       0.650464         245.273         96.8008 
       0.656582         243.548          94.828 
       0.662703         241.603         92.9108 
       0.668861         237.148         91.0366 
       0.675024         234.661         89.2129 
       0.681124         233.555         87.4573 
       0.687237         230.462         85.7451 
       0.693381         227.012         84.0704 
       0.699536         225.198         82.4376 
       0.705665         223.935         80.8552 
       0.711789         220.771         79.3162 
       0.717957         219.827         77.8073 
        0.72409         217.023         76.3467 
       0.730186         214.558          74.933 
       0.736317         212.404         73.5481 
       0.742472         211.256         72.1936 
       0.748622         209.354         70.8749 
        0.75476         207.518         69.5924 
       0.760888          204.74         68.3438 
       0.767043         204.167         67.1212 
       0.773185         201.781         65.9312 
       0.779291         198.242         64.7771 
       0.785407         197.721         63.6491 
       0.791564         195.882         62.5411 
       0.797719         193.116         61.4603 
       0.803834         192.331          60.412 
       0.809972         190.641         59.3847 
       0.816124         190.584         58.3792 
       0.822261         187.787         57.3998 
       0.828378         186.117         56.4461 
       0.834502         185.672         55.5134 
       0.840667         182.643         54.5959 
       0.846816         181.193         53.7019 
       0.852925         180.234         52.8337 
       0.859047         178.528         51.9831 
       0.865192         177.094         51.1485 
       0.871341         175.363         50.3319 
       0.877463         173.835          49.537 
       0.883569         172.953         48.7613 
       0.889708         171.428         47.9984 
       0.895864         169.466           47.25 
       0.902008         168.587         46.5193 
       0.908149         167.802         45.8046 
       0.914301         165.878         45.1038 
       0.920448         164.522         44.4184 
       0.926574         163.505         43.7498 
       0.932687         163.142         43.0965 
       0.938823         161.041         42.4543 
       0.944975         159.311         41.8238 
       0.951105         158.623         41.2085 
       0.957225         157.037         40.6066 
       0.963368         155.385         40.0149 
       0.969511         155.107          39.435 
       0.975621         153.779         38.8697 
       0.981748         153.207         38.3142 
       0.987916         151.611         37.7661 
        0.99406          150.26         37.2308 
        1.00019         149.933         36.7071 
        1.00632         148.286         36.1939 
        1.01246         147.482         35.6899 
        1.01859         146.477         35.1964 
        1.02471         145.338         34.7128 
        1.03085         143.601         34.2368 
        1.03698         143.015         33.7707 
        1.04314         141.793         33.3115 
        1.04929         140.892         32.8618 
        1.05541         140.027         32.4224 
        1.06154         139.154         31.9899 
        1.06769          138.98         31.5647 
        1.07382         137.794         31.1487 
        1.07993         136.515         30.7412 
        1.08607         135.511         30.3393 
        1.09222         134.821         29.9442 
        1.09836          133.59         29.5566 
        1.10449         132.435         29.1764 
        1.11063         131.514         28.8025 
        1.11677         131.148         28.4354 
         1.1229           129.6         28.0753 
        1.12903         128.875         27.7211 
        1.13518         128.567         27.3728 
        1.14131         127.524         27.0307 
        1.14745         126.637         26.6947 
        1.15359         125.859         26.3644 
        1.15973         125.396         26.0395 
        1.16584         123.946         25.7217 
        1.17197         123.301         25.4087 
        1.17811         122.571         25.0999 
        1.18424         121.729         24.7973 
        1.19038         121.371         24.4987 
        1.19652         120.509         24.2052 
        1.20267         119.687         23.9166 
        1.20881          118.84         23.6327 
        1.21495         118.066         23.3539 
        1.22108         117.335         23.0797 
         1.2272         116.363         22.8105 
        1.23334         115.766          22.545 
        1.23949         114.771         22.2832 
        1.24562         114.312         22.0262 
        1.25174          113.16         21.7737 
        1.25789         112.807         21.5244 
        1.26402         112.028         21.2795 
        1.27014         111.093          21.039 
        1.27628         110.667         20.8016 
        1.28244         110.158         20.5673 
        1.28858         109.588          20.337 
        1.29471         108.387         20.1108 
        1.30084         108.101         19.8882 
        1.30697         107.317         19.6687 
        1.31312         106.937         19.4522 
        1.31925         105.951         19.2397 
        1.32537         105.573         19.0305 
        1.33151         104.515         18.8237 
        1.33765         104.092         18.6202 
        1.34378         103.533           18.42 
        1.34992         103.066         18.2227 
        1.35606         102.362         18.0278 
         1.3622         101.601         17.8362 
        1.36833         101.117         17.6478 
        1.37445         100.415         17.4622 
        1.38059         99.9741         17.2787 
        1.38675         99.1582         17.0974 
        1.39288         98.7031         16.9195 
        1.39901         98.3804         16.7442 
        1.40515          97.703          16.571 
         1.4113         96.8361         16.4003 
        1.41742         96.6619         16.2327 
        1.42355          95.868         16.0671 
         1.4297         95.4222         15.9033 
        1.43585         94.6525         15.7419 
        1.44198         94.2422         15.5834 
        1.44809         93.6653         15.4273 
        1.45423         93.1189         15.2728 
        1.46036          92.764         15.1208 
        1.46649         92.2146         14.9707 
        1.47263         91.8027         14.8226 
        1.47877         91.3272         14.6765 
        1.48491         90.5223         14.5322 
        1.49104         90.0829         14.3902 
        1.49718         89.4791         14.2499 
        1.50333         89.0038         14.1113 
        1.50947          88.665         13.9748 
         1.5156          88.094         13.8404 
        1.52172          87.626         13.7077 
        1.52787         87.3941         13.5764 
          1.534         86.6784         13.4471 
        1.54013         86.0321         13.3196 
        1.54627         85.7602         13.1935 
        1.55241         85.3478          13.069 
        1.55855         84.7972         12.9463 
        1.56467         84.4001         12.8256 
         1.5708         83.8783          12.706 
        1.57695         83.7973         12.5878 
        1.58308         82.7959         12.4714 
        1.58922         82.7849         12.3563 
        1.59535         82.3598         12.2428 
         1.6015         81.6996         12.1305 
        1.60764         81.3389         12.0197 
        1.61376         80.9855         11.9106 
        1.61989         80.3498         11.8028 
        1.62604         79.9894         11.6961 
        1.63218         79.7022         11.5907 
        1.63831         79.0637         11.4869 
        1.64444         78.6685         11.3844 
        1.65059         78.2812         11.2828 
        1.65673         77.7817         11.1826 
        1.66285         77.5419          11.084 
        1.66898         76.9913         10.9864 
        1.67512         76.6909         10.8899 
        1.68127         76.1883         10.7944 
         1.6874         75.8254         10.7003 
        1.69353         75.4722         10.6074 
        1.69967         74.8115         10.5153 
        1.70581         74.8169         10.4244 
        1.71193         74.4719         10.3349 
        1.71806         73.7594         10.2463 
        1.72421         73.6155         10.1585 
        1.73035         72.9699         10.0719 
        1.73649          72.723         9.98626 
        1.74262         72.3072         9.90172 
        1.74876         72.1339          9.8181 
        1.75489         71.4176         9.73563 
        1.76101         71.2562         9.65412 
        1.76715         70.8236         9.57345 
        1.77329         70.5239          9.4936 
        1.77943         70.1648         9.41462 
        1.78557         69.8706         9.33667 
        1.79171         69.3544         9.25958 
        1.79785         69.0814         9.18336 
        1.80399         68.8417         9.10801 
        1.81012         68.4481         9.03361 
        1.81625         68.0254         8.96008 
        1.82239         67.7722         8.88726 
        1.82853         67.4395         8.81528 
        1.83466         67.0565         8.74418 
        1.84078         66.7956         8.67393 
        1.84692         66.2716         8.60435 
        1.85306         65.9435         8.53544 
         1.8592         65.5084          8.4674 
        1.86533         65.3258         8.40014 
        1.87147         64.8218         8.33354 
        1.87761         64.6456         8.26763 
        1.88375         64.3147         8.20251 
        1.88988         64.1314         8.13816 
        1.89601         63.7211         8.07447 
        1.90215         63.3775         8.01141 
        1.90829         63.0783         7.94906 
        1.91442         62.6805         7.88736 
        1.92056         62.3549         7.82638 
         1.9267         62.1751         7.76597 
        1.93284         61.7233         7.70617 
        1.93897         61.3191         7.64711 
        1.94509         61.0318          7.5888 
        1.95123         60.8943         7.53095 
        1.95737         60.6131         7.47367 
        1.96349         60.1942         7.41713 
        1.96964          59.914           7.361 
        1.97578          59.632         7.30544 
        1.98192         59.4224         7.25057 
        1.98805         59.2197         7.19625 
        1.99419         58.7712         7.14249 
        2.00033           58.47         7.08925 
        2.00647         58.3316         7.03657 
         2.0126         57.7498         6.98452 
        2.01874         57.5969         6.93292 
        2.02488         57.3077         6.88179 
        2.03101         57.1641         6.83127 
        2.03714         56.7199         6.78131 
        2.04328         56.4744          6.7318 
        2.04941         56.1188         6.68282 
        2.05554         55.8525         6.63436 
        2.06167         55.6739         6.58632 
        2.06781         55.4158         6.53875 
        2.07396          55.111         6.49158 
        2.08009         54.8286         6.44496 
        2.08622         54.5769         6.39886 
        2.09237         54.2664         6.35311 
        2.09851         54.0832          6.3078 
        2.10464         53.7565         6.26301 
        2.11077         53.4636         6.21871 
        2.11691         53.2251         6.17475 
        2.12305         52.9638          6.1312 
        2.12918         52.6945         6.08818 
        2.13531          52.337         6.04557 
        2.14145         52.2238         6.00327 
         2.1476          52.032         5.96132 
        2.15372         51.7658         5.91998 
        2.15985         51.4404           5.879 
        2.16599         51.1763         5.83828 
        2.17213         50.9921           5.798 
        2.17827         50.6776         5.75811 
         2.1844         50.4013         5.71862 
        2.19054         50.2355          5.6795 
        2.19666         49.9798         5.64079 
         2.2028         49.7933         5.60242 
        2.20893         49.5637         5.56438 
        2.21508         49.2277         5.52665 
        2.22122         48.9652         5.48926 
        2.22736         48.8767          5.4523 
        2.23349         48.5506         5.41568 
        2.23962         48.3351         5.37938 
        2.24577         48.0921         5.34339 
         2.2519         47.8285         5.30777 
        2.25802         47.6376         5.27254 
        2.26417         47.4096         5.23753 
        2.27031         47.2015          5.2028 
        2.27644          47.072         5.16849 
        2.28257         46.7462          5.1345 
        2.28872         46.5243         5.10074 
        2.29486         46.3118          5.0673 
        2.30099         46.1709         5.03423 
        2.30712          45.888         5.00143 
        2.31326         45.6597         4.96888 
         2.3194          45.377         4.93663 
        2.32553         45.1117         4.90472 
        2.33166         44.9615         4.87311 
         2.3378         44.7364         4.84174 
        2.34394         44.5203         4.81063 
        2.35007         44.2117         4.77984 
        2.35619         44.2006         4.74936 
        2.36233         44.0196         4.71907 
        2.36848         43.6711         4.68898 
        2.37462         43.5562         4.65922 
        2.38075         43.3505         4.62975 
        2.38689         43.1588          4.6005 
        2.39303         43.0022         4.57152 
        2.39916         42.8216         4.54281 
        2.40529         42.5062         4.51435 
        2.41143         42.3158         4.48612 
        2.41757         42.1183         4.45811 
         2.4237         42.0113         4.43039 
        2.42983         41.7936         4.40292 
        2.43598         41.5639          4.3756 
        2.44211         41.4199         4.34856 
        2.44823         41.1461         4.32181 
        2.45437         41.0789         4.29521 
        2.46052         40.7837         4.26881 
        2.46665         40.7049         4.24268 
        2.47279         40.5312         4.21678 
        2.47892           40.33         4.19108 
        2.48507         40.1128         4.16557 
         2.4912         40.0131         4.14032 
