# k  (h/Mpc)    Pcb(k)  (Mpc/h)^3    Pcb_linear(k)  (Mpc/h)^3
     0.00783031         3070.47         3085.02 
       0.013688         3785.42          3794.1 
       0.019231         3815.21          3822.3 
      0.0249154         3491.07         3513.88 
      0.0312784          3020.3         3024.09 
      0.0375637         2568.79         2564.07 
      0.0433917         2219.17         2229.02 
      0.0492413         1995.45         1989.95 
      0.0555754         1796.43         1815.26 
      0.0619321         1699.76         1686.78 
       0.067871         1563.01         1574.92 
      0.0738098         1441.58         1451.38 
      0.0800417         1293.69         1305.78 
      0.0862327         1154.68         1155.65 
      0.0921407         1026.75         1022.36 
      0.0982031         908.774         908.066 
       0.104506         833.931         819.006 
       0.110769         773.197         758.166 
       0.116806         725.851         717.974 
       0.122832         697.308         686.366 
       0.129052         657.363         653.651 
       0.135211         621.187         615.603 
       0.141259         583.175         571.929 
       0.147318         540.621         524.874 
       0.153489          491.76         478.386 
       0.159709         453.761         437.507 
       0.165845         428.327         405.486 
       0.171974         399.312         381.792 
       0.178125         383.441         364.475 
       0.184229         370.695         350.837 
        0.19034         350.793         337.847 
       0.196428         341.836         323.519 
       0.202534         328.561         306.996 
       0.208729         308.878         288.565 
       0.214876         289.028         269.984 
       0.220989          275.64         252.729 
       0.227147         258.335         237.706 
        0.23329         246.493         225.504 
       0.239377         239.034          215.89 
       0.245482         225.829         207.984 
       0.251667         222.572         200.813 
       0.257832         215.888         193.663 
       0.263955         207.413         186.076 
       0.270079         199.519         177.936 
        0.27624         194.067         169.457 
       0.282372         185.584          161.19 
        0.28843         177.754         153.608 
       0.294538         170.613         146.834 
       0.300721         166.686         140.932 
        0.30691         159.039         135.843 
       0.313033         155.186         131.358 
       0.319153         148.517         127.131 
       0.325316         145.932         122.905 
        0.33145         140.766         118.609 
       0.337538         137.772         114.262 
       0.343633          132.88         109.923 
       0.349808         128.877         105.674 
       0.355968         125.528         101.709 
       0.362074         121.473         98.1119 
       0.368217         118.323         94.8406 
       0.374374         114.987         91.8506 
       0.380519         112.291         89.0718 
       0.386598         109.498          86.443 
       0.392688         107.339         83.8564 
        0.39888         104.636         81.2496 
       0.405048         102.101         78.6794 
       0.411186          99.828         76.1723 
       0.417313         96.8775         73.7639 
       0.423458         94.6862         71.4745 
       0.429607         92.3098         69.3219 
       0.435692         89.2325         67.3314 
       0.441815         88.3579         65.4489 
       0.447964         86.9454         63.6496 
       0.454126         83.2903         61.9137 
       0.460267          82.251         60.2335 
       0.466387         80.3914         58.5949 
        0.47254         79.1447         56.9831 
       0.478662         77.9837         55.4259 
       0.484765         75.6399         53.9294 
       0.490885          74.193         52.4902 
       0.497035          73.336         51.1082 
       0.503198         71.3563         49.7894 
       0.509342          69.602         48.5344 
       0.515458          68.562         47.3339 
       0.521598         67.5811         46.1679 
       0.527764         66.3546         45.0312 
       0.533884         65.3087         43.9354 
           0.54         63.9865         42.8718 
       0.546137         63.2097         41.8354 
       0.552299         62.3222         40.8272 
       0.558452         60.5126         39.8553 
       0.564573         59.5178         38.9242 
       0.570708          58.854          38.026 
       0.576825         57.5958         37.1626 
       0.582926         56.5506         36.3298 
       0.589034         55.3099         35.5209 
       0.595184          54.635         34.7298 
       0.601379          53.856          33.956 
       0.607522         52.6841         33.2111 
       0.613639         52.4078         32.4914 
       0.619772         51.0736         31.7914 
       0.625918         50.8629          31.111 
       0.632068         50.0541         30.4507 
       0.638161         49.2405         29.8159 
         0.6443         48.4201         29.1952 
       0.650464         47.7183         28.5905 
       0.656582         47.2391         28.0078 
       0.662703         46.3805         27.4416 
       0.668861         45.6942          26.888 
       0.675024         45.0406         26.3494 
       0.681124         44.2538         25.8309 
       0.687237         43.5943         25.3252 
       0.693381         43.2763         24.8306 
       0.699536          42.319         24.3483 
       0.705665         42.3891         23.8809 
       0.711789         41.3766         23.4264 
       0.717957         40.9388         22.9807 
        0.72409         40.3587         22.5493 
       0.730186          39.778         22.1318 
       0.736317          39.524         21.7228 
       0.742472           38.81         21.3227 
       0.748622         38.5047         20.9332 
        0.75476         37.9813         20.5544 
       0.760888         37.4064         20.1856 
       0.767043         37.0346         19.8245 
       0.773185         36.4616         19.4731 
       0.779291         36.3438         19.1322 
       0.785407         35.8785         18.7991 
       0.791564         35.2785         18.4718 
       0.797719         34.6074         18.1526 
       0.803834         34.5664          17.843 
       0.809972          34.157         17.5395 
       0.816124         33.4957         17.2426 
       0.822261         33.2842         16.9533 
       0.828378         32.9543         16.6716 
       0.834502         32.6461         16.3961 
       0.840667         32.2689         16.1251 
       0.846816         31.7681         15.8611 
       0.852925         31.4793         15.6047 
       0.859047         31.1215         15.3534 
       0.865192         30.8796          15.107 
       0.871341         30.7136         14.8658 
       0.877463         30.0742          14.631 
       0.883569         29.8097         14.4019 
       0.889708         29.5141         14.1766 
       0.895864         29.2637         13.9555 
       0.902008         29.0195         13.7397 
       0.908149         28.7343         13.5286 
       0.914301         28.6416         13.3216 
       0.920448         28.1008         13.1192 
       0.926574         27.8778         12.9217 
       0.932687         27.6111         12.7288 
       0.938823         27.2825         12.5391 
       0.944975          27.065         12.3529 
       0.951105         26.8133         12.1711 
       0.957225         26.5181         11.9934 
       0.963368         26.3793         11.8186 
       0.969511         26.0995         11.6473 
       0.975621         25.9213         11.4804 
       0.981748         25.5681         11.3163 
       0.987916         25.4676         11.1544 
        0.99406         25.1269         10.9963 
        1.00019         24.8433         10.8416 
        1.00632          24.737         10.6901 
        1.01246         24.5471         10.5412 
        1.01859         24.2104         10.3954 
        1.02471          24.141         10.2526 
        1.03085         23.9046          10.112 
        1.03698         23.5554         9.97435 
        1.04314         23.4205          9.8387 
        1.04929         23.1759          9.7059 
        1.05541          22.975         9.57611 
        1.06154         22.8333         9.44838 
        1.06769         22.6794          9.3228 
        1.07382         22.4208         9.19993 
        1.07993         22.3197         9.07956 
        1.08607         22.0656         8.96086 
        1.09222         21.9355         8.84417 
        1.09836         21.7044          8.7297 
        1.10449         21.5583         8.61741 
        1.11063         21.3356         8.50697 
        1.11677         21.2533         8.39853 
         1.1229         21.1381         8.29217 
        1.12903         20.8361         8.18757 
        1.13518         20.6315          8.0847 
        1.14131         20.5874         7.98366 
        1.14745         20.4197         7.88442 
        1.15359         20.3234         7.78686 
        1.15973          20.071         7.69091 
        1.16584         19.8416         7.59702 
        1.17197         19.8311         7.50457 
        1.17811         19.6184         7.41339 
        1.18424         19.4766         7.32399 
        1.19038          19.387         7.23582 
        1.19652         19.2285         7.14914 
        1.20267         19.0708         7.06388 
        1.20881         19.0123         6.98004 
        1.21495         18.8686         6.89769 
        1.22108         18.6892          6.8167 
         1.2272         18.5201         6.73719 
        1.23334         18.4225         6.65879 
        1.23949         18.2121         6.58144 
        1.24562         18.1772         6.50555 
        1.25174          18.052         6.43098 
        1.25789         17.9441         6.35735 
        1.26402         17.8455         6.28502 
        1.27014         17.6942         6.21399 
        1.27628         17.4833         6.14385 
        1.28244          17.452         6.07467 
        1.28858         17.3784         6.00665 
        1.29471         17.1926         5.93983 
        1.30084         17.0725          5.8741 
        1.30697         16.9977         5.80926 
        1.31312          16.828         5.74532 
        1.31925         16.7148         5.68254 
        1.32537         16.7011         5.62077 
        1.33151         16.5642         5.55969 
        1.33765         16.4556         5.49957 
        1.34378          16.364         5.44045 
        1.34992         16.2002         5.38217 
        1.35606         16.1779         5.32461 
         1.3622         16.0692         5.26801 
        1.36833         15.9272         5.21236 
        1.37445         15.8827         5.15755 
        1.38059         15.7955         5.10336 
        1.38675         15.6316         5.04982 
        1.39288         15.6083         4.99726 
        1.39901         15.4569         4.94548 
        1.40515         15.4132         4.89432 
         1.4113         15.3189         4.84391 
        1.41742         15.2118          4.7944 
        1.42355         15.1437          4.7455 
         1.4297          15.083         4.69713 
        1.43585         15.0123         4.64946 
        1.44198         14.9089         4.60263 
        1.44809         14.8336         4.55654 
        1.45423         14.7602         4.51092 
        1.46036         14.6767           4.466 
        1.46649         14.6209         4.42168 
        1.47263          14.511         4.37793 
        1.47877         14.4395         4.33479 
        1.48491         14.3721         4.29217 
        1.49104         14.3323         4.25022 
        1.49718         14.2212         4.20879 
        1.50333         14.1884         4.16785 
        1.50947         14.0969         4.12754 
         1.5156         14.0316         4.08782 
        1.52172         13.9792         4.04863 
        1.52787         13.8951         4.00988 
          1.534         13.8264         3.97168 
        1.54013         13.7851         3.93401 
        1.54627         13.6987         3.89677 
        1.55241         13.6651         3.86001 
        1.55855         13.5832         3.82377 
        1.56467         13.5462         3.78811 
         1.5708         13.4927         3.75279 
        1.57695         13.4046         3.71788 
        1.58308         13.3765         3.68349 
        1.58922         13.3165         3.64951 
        1.59535         13.2784         3.61598 
         1.6015         13.1923         3.58282 
        1.60764         13.1198          3.5501 
        1.61376         13.1131         3.51788 
        1.61989         13.0574         3.48603 
        1.62604         13.0531          3.4545 
        1.63218         12.9957         3.42339 
        1.63831         12.9431         3.39274 
        1.64444         12.8745         3.36244 
        1.65059         12.8441         3.33245 
        1.65673         12.8191         3.30286 
        1.66285         12.7418         3.27371 
        1.66898         12.7055          3.2449 
        1.67512         12.6906         3.21639 
        1.68127         12.6399         3.18819 
         1.6874         12.6269         3.16039 
        1.69353         12.5703         3.13294 
        1.69967         12.5271         3.10576 
        1.70581         12.5207         3.07891 
        1.71193         12.4433         3.05247 
        1.71806          12.444         3.02629 
        1.72421         12.3802         3.00037 
        1.73035         12.3797         2.97478 
        1.73649         12.3679          2.9495 
        1.74262         12.3348         2.92453 
        1.74876         12.3226         2.89983 
        1.75489         12.2924         2.87547 
        1.76101         12.2484          2.8514 
        1.76715         12.2504         2.82757 
        1.77329         12.1955         2.80399 
        1.77943         12.1349         2.78066 
        1.78557         12.1789         2.75764 
        1.79171         12.1554         2.73487 
        1.79785         12.1276         2.71236 
        1.80399         12.0964          2.6901 
        1.81012          12.089         2.66813 
        1.81625         12.0746         2.64641 
        1.82239         12.0353          2.6249 
        1.82853         12.0381         2.60365 
        1.83466         12.0485         2.58264 
        1.84078         11.9964          2.5619 
        1.84692         12.0007         2.54135 
        1.85306         11.9897         2.52099 
         1.8592         11.9834          2.5009 
        1.86533         11.9823         2.48103 
        1.87147         11.9827         2.46136 
        1.87761         11.9632         2.44189 
        1.88375         11.9663         2.42266 
        1.88988         11.9572         2.40366 
        1.89601         11.9662         2.38484 
        1.90215         11.9236         2.36622 
        1.90829         11.9284          2.3478 
        1.91442         11.9407         2.32958 
        1.92056         11.9438         2.31157 
         1.9267         11.9307         2.29373 
        1.93284         11.9568         2.27606 
        1.93897         11.9245         2.25862 
        1.94509         11.9514          2.2414 
        1.95123         11.9318         2.22431 
        1.95737         11.9504         2.20739 
        1.96349         11.9514         2.19069 
        1.96964         11.9491         2.17412 
        1.97578         11.9622         2.15771 
        1.98192         11.9581          2.1415 
        1.98805         11.9881         2.12546 
        1.99419         11.9559         2.10958 
        2.00033         12.0205         2.09385 
        2.00647         12.0054          2.0783 
         2.0126         11.9987         2.06292 
        2.01874         12.0443         2.04768 
        2.02488         12.0616         2.03258 
        2.03101         12.0536         2.01766 
        2.03714         12.0545          2.0029 
        2.04328         12.1112         1.98828 
        2.04941         12.0902         1.97381 
        2.05554         12.0956          1.9595 
        2.06167         12.1024         1.94531 
        2.06781         12.1413         1.93126 
        2.07396           12.14         1.91733 
        2.08009         12.1804         1.90356 
        2.08622         12.1963         1.88994 
        2.09237         12.2293         1.87643 
        2.09851          12.251         1.86305 
        2.10464         12.2536         1.84982 
        2.11077         12.2424         1.83674 
        2.11691         12.2768         1.82375 
        2.12305         12.3186         1.81089 
        2.12918         12.3571         1.79818 
        2.13531          12.364          1.7856 
        2.14145         12.3852          1.7731 
         2.1476         12.3825         1.76071 
        2.15372         12.4393         1.74851 
        2.15985         12.4388          1.7364 
        2.16599         12.4612         1.72437 
        2.17213         12.5022         1.71248 
        2.17827         12.5236         1.70069 
         2.1844         12.5656         1.68903 
        2.19054         12.5519         1.67748 
        2.19666         12.5945         1.66604 
         2.2028         12.6062         1.65471 
        2.20893          12.631         1.64348 
        2.21508         12.6926         1.63233 
        2.22122         12.6945         1.62129 
        2.22736         12.7338         1.61037 
        2.23349         12.7929         1.59956 
        2.23962         12.7786         1.58884 
        2.24577         12.8141          1.5782 
         2.2519         12.8654         1.56769 
        2.25802         12.8861         1.55728 
        2.26417         12.8767         1.54694 
        2.27031         12.9358         1.53668 
        2.27644         12.9441         1.52655 
        2.28257         12.9928         1.51651 
        2.28872         12.9827         1.50654 
        2.29486         13.0214         1.49666 
        2.30099         13.0686         1.48689 
        2.30712          13.121         1.47721 
        2.31326         13.0985         1.46759 
         2.3194          13.149         1.45807 
        2.32553         13.1894         1.44864 
        2.33166         13.2217         1.43931 
         2.3378         13.2243         1.43004 
        2.34394         13.2895         1.42085 
        2.35007         13.2796         1.41176 
        2.35619         13.3008         1.40276 
        2.36233          13.345         1.39381 
        2.36848         13.3791         1.38492 
        2.37462         13.4057         1.37613 
        2.38075          13.415         1.36743 
        2.38689         13.4956         1.35879 
        2.39303         13.4787         1.35023 
        2.39916         13.5102         1.34175 
        2.40529         13.5484         1.33334 
        2.41143         13.5773         1.32501 
        2.41757         13.6068         1.31673 
         2.4237         13.6297         1.30855 
        2.42983         13.5985         1.30043 
        2.43598         13.6479         1.29236 
        2.44211         13.7045         1.28438 
        2.44823         13.6792         1.27648 
        2.45437         13.7258         1.26862 
        2.46052         13.7835         1.26082 
        2.46665         13.7996         1.25311 
        2.47279         13.8134         1.24546 
        2.47892         13.8384         1.23787 
        2.48507         13.8478         1.23033 
         2.4912          13.872         1.22287 
