# k  (h/Mpc)    Pcb(k)  (Mpc/h)^3    Pcb_linear(k)  (Mpc/h)^3
     0.00783031         4688.38         4713.45 
       0.013688            5791         5795.49 
       0.019231         5828.57         5837.89 
      0.0249154            5320         5366.42 
      0.0312784         4605.74         4618.15 
      0.0375637         3920.46          3915.5 
      0.0433917         3379.96         3403.78 
      0.0492413         3042.34         3038.65 
      0.0555754         2731.81         2771.86 
      0.0619321         2593.47         2575.64 
       0.067871         2377.41         2404.83 
      0.0738098         2192.48         2216.17 
      0.0800417         1965.03         1993.84 
      0.0862327         1756.81         1764.59 
      0.0921407         1565.89         1561.06 
      0.0982031         1385.18         1386.54 
       0.104506         1276.14         1250.55 
       0.110769         1183.09         1157.65 
       0.116806          1110.1         1096.28 
       0.122832         1065.95         1048.01 
       0.129052         1002.49          998.06 
       0.135211         948.189         939.962 
       0.141259          892.48         873.276 
       0.147318         828.784         801.428 
       0.153489         753.822         730.445 
       0.159709         698.227         668.026 
       0.165845         660.942         619.133 
       0.171974          617.06         582.955 
       0.178125         592.179         556.512 
       0.184229         572.476         535.688 
        0.19034         539.882         515.855 
       0.196428         527.807         493.976 
       0.202534         508.117         468.749 
       0.208729         478.574         440.606 
       0.214876         448.634         412.235 
       0.220989         429.392         385.889 
       0.227147         403.487          362.95 
        0.23329          385.54         344.319 
       0.239377         375.068         329.639 
       0.245482         352.588         317.568 
       0.251667         348.661         306.618 
       0.257832         338.428         295.701 
       0.263955         325.345         284.117 
       0.270079         313.142         271.687 
        0.27624         306.171         258.741 
       0.282372         293.009         246.118 
        0.28843          281.88         234.541 
       0.294538             270         224.199 
       0.300721         265.181         215.186 
        0.30691          252.94         207.416 
       0.313033         247.432         200.568 
       0.319153         237.198         194.115 
       0.325316         232.333         187.661 
        0.33145         224.352         181.102 
       0.337538         220.787         174.465 
       0.343633         213.104         167.839 
       0.349808         206.504         161.351 
       0.355968         202.321         155.298 
       0.362074         196.148         149.805 
       0.368217         191.271          144.81 
       0.374374         185.567         140.245 
       0.380519         181.855         136.002 
       0.386598         177.328         131.988 
       0.392688         174.372         128.039 
        0.39888         170.079         124.058 
       0.405048         166.144         120.134 
       0.411186         162.484         116.306 
       0.417313           158.4         112.629 
       0.423458         155.321         109.133 
       0.429607         151.502         105.846 
       0.435692         146.483         102.807 
       0.441815           145.5         99.9326 
       0.447964         143.099         97.1853 
       0.454126         136.908         94.5347 
       0.460267         135.504         91.9693 
       0.466387         133.224         89.4674 
        0.47254         130.787         87.0063 
       0.478662         129.286         84.6287 
       0.484765         125.491         82.3437 
       0.490885         123.399         80.1462 
       0.497035         122.018          78.036 
       0.503198         118.583         76.0224 
       0.509342         116.293         74.1062 
       0.515458         114.631         72.2731 
       0.521598         113.187         70.4928 
       0.527764         111.355         68.7572 
       0.533884          109.62         67.0841 
           0.54          107.59         65.4601 
       0.546137         106.608         63.8776 
       0.552299         105.032         62.3383 
       0.558452          102.43         60.8542 
       0.564573         100.638         59.4325 
       0.570708         99.5389         58.0611 
       0.576825         97.8701         56.7428 
       0.582926         96.0821         55.4712 
       0.589034          94.332         54.2362 
       0.595184         93.2249         53.0283 
       0.601379         92.0919         51.8467 
       0.607522          89.936         50.7094 
       0.613639         89.6676         49.6104 
       0.619772         87.5835         48.5416 
       0.625918         86.9209         47.5028 
       0.632068         85.7927         46.4945 
       0.638161         84.6588         45.5252 
         0.6443         83.4826         44.5775 
       0.650464         82.4707         43.6543 
       0.656582         81.3513         42.7646 
       0.662703         79.8727            41.9 
       0.668861         78.9666         41.0548 
       0.675024         78.0353         40.2323 
       0.681124         76.9118         39.4406 
       0.687237         75.6753         38.6685 
       0.693381         74.9513         37.9133 
       0.699536          73.832         37.1769 
       0.705665         74.1205         36.4633 
       0.711789         72.1376         35.7693 
       0.717957         71.5698         35.0888 
        0.72409         70.5868         34.4301 
       0.730186         69.4944         33.7926 
       0.736317         69.3216          33.168 
       0.742472         68.3117         32.5572 
       0.748622          67.674         31.9625 
        0.75476          66.945         31.3841 
       0.760888          65.949          30.821 
       0.767043         65.2917         30.2697 
       0.773185         64.4621          29.733 
       0.779291         64.1854         29.2126 
       0.785407         63.4261         28.7039 
       0.791564         62.5496         28.2042 
       0.797719         61.6334         27.7168 
       0.803834         61.4251          27.244 
       0.809972         60.4082         26.7807 
       0.816124         59.7356         26.3273 
       0.822261          59.333         25.8856 
       0.828378         58.8462         25.4555 
       0.834502         58.1844         25.0349 
       0.840667         57.7152         24.6211 
       0.846816         56.9093          24.218 
       0.852925         56.3853         23.8265 
       0.859047         55.7197         23.4428 
       0.865192         55.3955         23.0665 
       0.871341         55.1379         22.6982 
       0.877463          53.986         22.3397 
       0.883569         53.6211         21.9899 
       0.889708         53.3371         21.6459 
       0.895864         52.8194         21.3084 
       0.902008         52.3226         20.9788 
       0.908149         51.9132         20.6565 
       0.914301         51.6259         20.3405 
       0.920448         50.9298         20.0314 
       0.926574         50.5129         19.7299 
       0.932687          50.136         19.4353 
       0.938823         49.4205         19.1457 
       0.944975         49.2497         18.8613 
       0.951105         48.7422         18.5838 
       0.957225         48.1873         18.3124 
       0.963368         48.0416         18.0455 
       0.969511         47.6065          17.784 
       0.975621         47.2357         17.5291 
       0.981748         46.6437         17.2786 
       0.987916          46.493         17.0314 
        0.99406         46.0417           16.79 
        1.00019         45.5007         16.5538 
        1.00632         45.2671         16.3224 
        1.01246         44.9253         16.0951 
        1.01859         44.3804         15.8725 
        1.02471         44.4093         15.6545 
        1.03085         43.9044         15.4398 
        1.03698         43.4224         15.2296 
        1.04314         43.0353         15.0225 
        1.04929         42.7894         14.8197 
        1.05541         42.3403         14.6215 
        1.06154         42.2646         14.4265 
        1.06769          41.862         14.2348 
        1.07382         41.5517         14.0472 
        1.07993         41.4043         13.8634 
        1.08607         40.9097         13.6821 
        1.09222         40.7714          13.504 
        1.09836         40.3679         13.3292 
        1.10449         40.0498         13.1577 
        1.11063         39.6014         12.9891 
        1.11677          39.388         12.8235 
         1.1229         39.2842         12.6611 
        1.12903         38.6798         12.5014 
        1.13518          38.584         12.3444 
        1.14131         38.4851         12.1901 
        1.14745         38.0627         12.0386 
        1.15359         37.9741         11.8896 
        1.15973          37.463         11.7431 
        1.16584         37.1707         11.5997 
        1.17197         37.1584         11.4586 
        1.17811         36.8025         11.3193 
        1.18424         36.4179         11.1828 
        1.19038         36.3773         11.0482 
        1.19652         36.1535         10.9159 
        1.20267          35.898         10.7857 
        1.20881         35.6923         10.6577 
        1.21495         35.3973         10.5319 
        1.22108          35.158         10.4083 
         1.2272         34.8078         10.2869 
        1.23334         34.6793         10.1672 
        1.23949         34.4524         10.0491 
        1.24562         34.2629         9.93319 
        1.25174         34.0984         9.81932 
        1.25789         33.8433          9.7069 
        1.26402          33.628         9.59646 
        1.27014         33.3678         9.48801 
        1.27628         33.1704         9.38092 
        1.28244         33.0052         9.27528 
        1.28858         32.8628         9.17143 
        1.29471         32.6002          9.0694 
        1.30084         32.4864         8.96903 
        1.30697         32.2423         8.87004 
        1.31312         31.9048          8.7724 
        1.31925         31.8551         8.67655 
        1.32537         31.7538         8.58223 
        1.33151         31.4905         8.48898 
        1.33765         31.4225         8.39717 
        1.34378         31.1994         8.30691 
        1.34992         30.8039         8.21792 
        1.35606         30.7366         8.13004 
         1.3622         30.5619          8.0436 
        1.36833         30.4098         7.95864 
        1.37445         30.3812         7.87494 
        1.38059         30.1881          7.7922 
        1.38675         29.8897         7.71046 
        1.39288         29.8201         7.63021 
        1.39901         29.5505         7.55115 
        1.40515         29.5202         7.47304 
         1.4113         29.3432         7.39606 
        1.41742         29.0825         7.32047 
        1.42355         29.0482          7.2458 
         1.4297         28.8451         7.17195 
        1.43585         28.8087         7.09916 
        1.44198         28.5459         7.02766 
        1.44809         28.4315         6.95729 
        1.45423         28.3575         6.88762 
        1.46036         28.2649         6.81904 
        1.46649         28.0498         6.75137 
        1.47263         27.8984         6.68457 
        1.47877          27.806          6.6187 
        1.48491         27.6057         6.55362 
        1.49104         27.5859         6.48956 
        1.49718         27.3521         6.42631 
        1.50333         27.3111          6.3638 
        1.50947         27.1901         6.30225 
         1.5156         27.0467         6.24161 
        1.52172         26.8472         6.18177 
        1.52787         26.8703         6.12259 
          1.534         26.6831         6.06427 
        1.54013         26.5196         6.00676 
        1.54627          26.471          5.9499 
        1.55241         26.3359         5.89377 
        1.55855         26.1586         5.83844 
        1.56467         26.0744         5.78398 
         1.5708         26.0486         5.73006 
        1.57695         25.7962         5.67675 
        1.58308         25.8822         5.62424 
        1.58922         25.6893         5.57236 
        1.59535         25.5789         5.52116 
         1.6015         25.4658         5.47054 
        1.60764         25.4312         5.42057 
        1.61376         25.2792         5.37137 
        1.61989         25.1108         5.32274 
        1.62604         25.1677         5.27461 
        1.63218         24.9669          5.2271 
        1.63831         24.9427         5.18029 
        1.64444         24.8345         5.13404 
        1.65059         24.7232         5.08825 
        1.65673         24.6502         5.04306 
        1.66285         24.5833         4.99856 
        1.66898         24.4764         4.95457 
        1.67512         24.4457         4.91103 
        1.68127         24.3309         4.86798 
         1.6874          24.232         4.82553 
        1.69353         24.1852         4.78362 
        1.69967         24.0342         4.74211 
        1.70581         24.0479         4.70111 
        1.71193         23.9305         4.66075 
        1.71806         23.8777         4.62078 
        1.72421         23.7531          4.5812 
        1.73035         23.7566         4.54213 
        1.73649         23.6592         4.50353 
        1.74262         23.6356          4.4654 
        1.74876         23.5021         4.42769 
        1.75489         23.4367          4.3905 
        1.76101         23.4243         4.35374 
        1.76715         23.3769         4.31736 
        1.77329         23.3295         4.28135 
        1.77943           23.19         4.24574 
        1.78557         23.1819         4.21058 
        1.79171         23.1327         4.17582 
        1.79785         23.0277         4.14144 
        1.80399         23.0188         4.10746 
        1.81012         22.9888         4.07391 
        1.81625         22.8863         4.04075 
        1.82239         22.8807         4.00791 
        1.82853         22.7636         3.97545 
        1.83466         22.7101         3.94338 
        1.84078         22.6246          3.9117 
        1.84692         22.6679         3.88032 
        1.85306         22.5692         3.84925 
         1.8592         22.5357         3.81857 
        1.86533          22.508         3.78823 
        1.87147         22.4261          3.7582 
        1.87761         22.4641         3.72847 
        1.88375         22.3751         3.69911 
        1.88988          22.327         3.67009 
        1.89601         22.2532         3.64137 
        1.90215          22.242         3.61293 
        1.90829         22.2177         3.58481 
        1.91442         22.1559         3.55699 
        1.92056         22.0969         3.52948 
         1.9267         22.1358         3.50224 
        1.93284         21.9932         3.47527 
        1.93897         22.0209         3.44864 
        1.94509         21.9952         3.42234 
        1.95123         21.8865         3.39626 
        1.95737         21.9054         3.37042 
        1.96349         21.8614         3.34492 
        1.96964         21.8378         3.31961 
        1.97578         21.8298         3.29456 
        1.98192          21.759         3.26981 
        1.98805         21.7739         3.24531 
        1.99419         21.6742         3.22107 
        2.00033         21.6713         3.19706 
        2.00647         21.6385          3.1733 
         2.0126         21.5534         3.14983 
        2.01874         21.5912         3.12656 
        2.02488         21.5821          3.1035 
        2.03101         21.5735         3.08072 
        2.03714         21.5284         3.05819 
        2.04328         21.4551         3.03586 
        2.04941         21.4696         3.01377 
        2.05554         21.4535         2.99192 
        2.06167         21.3911         2.97025 
        2.06781         21.4094          2.9488 
        2.07396         21.3693         2.92753 
        2.08009          21.339         2.90651 
        2.08622         21.3348         2.88571 
        2.09237         21.2959         2.86508 
        2.09851         21.2435         2.84465 
        2.10464         21.1995         2.82445 
        2.11077         21.1711         2.80447 
        2.11691         21.1796         2.78465 
        2.12305         21.1323         2.76501 
        2.12918         21.1266         2.74561 
        2.13531         21.1205         2.72639 
        2.14145         21.0811         2.70731 
         2.1476         21.0819          2.6884 
        2.15372         21.0702         2.66975 
        2.15985         21.0005         2.65127 
        2.16599         21.0014         2.63291 
        2.17213         20.9698         2.61474 
        2.17827         20.9895         2.59675 
         2.1844         20.9596         2.57895 
        2.19054         20.8935          2.5613 
        2.19666         20.9376         2.54385 
         2.2028         20.9569         2.52654 
        2.20893         20.8236         2.50939 
        2.21508         20.8449         2.49237 
        2.22122         20.8144         2.47551 
        2.22736         20.7913         2.45884 
        2.23349         20.8193         2.44233 
        2.23962         20.7318         2.42596 
        2.24577         20.6941         2.40973 
         2.2519         20.7539         2.39366 
        2.25802         20.7389         2.37778 
        2.26417         20.6624         2.36199 
        2.27031         20.6497         2.34633 
        2.27644          20.605         2.33085 
        2.28257         20.6426         2.31552 
        2.28872         20.5921          2.3003 
        2.29486         20.5751         2.28522 
        2.30099         20.5814          2.2703 
        2.30712         20.6209         2.25551 
        2.31326         20.5271         2.24083 
         2.3194         20.5119         2.22629 
        2.32553         20.4814          2.2119 
        2.33166         20.4421         2.19765 
         2.3378         20.3929          2.1835 
        2.34394         20.3897         2.16947 
        2.35007         20.3799         2.15558 
        2.35619         20.3502         2.14184 
        2.36233         20.3458         2.12818 
        2.36848         20.3198         2.11461 
        2.37462          20.329         2.10119 
        2.38075         20.3051         2.08789 
        2.38689         20.3335         2.07471 
        2.39303         20.2431         2.06163 
        2.39916         20.2371         2.04869 
        2.40529         20.2267         2.03585 
        2.41143         20.1801         2.02312 
        2.41757         20.1327         2.01049 
         2.4237          20.166         1.99799 
        2.42983         20.1074          1.9856 
        2.43598         20.0958         1.97328 
        2.44211         20.0788         1.96109 
        2.44823         20.0151         1.94902 
        2.45437         20.0425         1.93703 
        2.46052         20.0146         1.92512 
        2.46665         19.9888         1.91334 
        2.47279         19.9433         1.90166 
        2.47892         19.9359         1.89007 
        2.48507         19.9172         1.87856 
         2.4912         19.9197         1.86718 
