# k  (h/Mpc)    P(k)  (Mpc/h)^3    P_linear(k)  (Mpc/h)^3
     0.00783031         312.029          312.78 
       0.013688         383.741         384.847 
       0.019231         388.121         387.895 
      0.0249154         357.152         356.685 
      0.0312784         308.351         307.024 
      0.0375637          261.78         260.349 
      0.0433917         227.349         226.345 
      0.0492413         203.611         202.079 
      0.0555754         184.789         184.346 
      0.0619321           172.8         171.304 
       0.067871          160.44         159.947 
      0.0738098         147.944         147.403 
      0.0800417         133.172         132.618 
      0.0862327         118.205         117.371 
      0.0921407         104.668         103.835 
      0.0982031          92.867         92.2277 
       0.104506         84.2194         83.1829 
       0.110769         78.0336          77.004 
       0.116806         73.6051         72.9221 
       0.122832         70.5538          69.712 
       0.129052         66.9533         66.3896 
       0.135211         63.1077         62.5253 
       0.141259         58.8116         58.0895 
       0.147318         54.1946         53.3105 
       0.153489         49.3593         48.5889 
       0.159709         45.1771         44.4369 
       0.165845         42.1949         41.1847 
       0.171974         39.4549         38.7782 
       0.178125         37.7767         37.0193 
       0.184229         36.4466         35.6341 
        0.19034         34.9056         34.3148 
       0.196428         33.6063         32.8595 
       0.202534         32.0401         31.1813 
       0.208729         30.0536         29.3093 
       0.214876         28.0885         27.4221 
       0.220989         26.4533         25.6695 
       0.227147         24.7826         24.1437 
        0.23329         23.5421         22.9044 
       0.239377         22.5913         21.9279 
       0.245482         21.6853         21.1249 
       0.251667         21.0859         20.3966 
       0.257832         20.3289         19.6703 
       0.263955         19.5513         18.8997 
       0.270079         18.7435          18.073 
        0.27624         17.9396         17.2118 
       0.282372         17.0749          16.372 
        0.28843         16.2676         15.6019 
       0.294538         15.5871          14.914 
       0.300721         15.0186         14.3145 
        0.30691         14.4065         13.7975 
       0.313033         13.9597          13.342 
       0.319153         13.4345         12.9128 
       0.325316         13.1161         12.4835 
        0.33145         12.6738         12.0471 
       0.337538         12.2089         11.6056 
       0.343633         11.7317         11.1649 
       0.349808         11.3334         10.7332 
       0.355968         10.9219         10.3306 
       0.362074         10.5513         9.96525 
       0.368217         10.2094         9.63299 
       0.374374         9.87136         9.32927 
       0.380519         9.60839         9.04706 
       0.386598         9.35408         8.78003 
       0.392688         9.09293         8.51732 
        0.39888         8.81995         8.25255 
       0.405048         8.55123         7.99148 
       0.411186         8.30267         7.73685 
       0.417313         8.02493          7.4922 
       0.423458          7.8005         7.25969 
       0.429607         7.55969         7.04103 
       0.435692         7.35058         6.83888 
       0.441815         7.15764         6.64766 
       0.447964          7.0023         6.46492 
       0.454126         6.78207         6.28859 
       0.460267         6.61251         6.11794 
       0.466387         6.42245         5.95151 
        0.47254         6.27431          5.7878 
       0.478662          6.1243         5.62963 
       0.484765         5.94427         5.47764 
       0.490885          5.7985         5.33145 
       0.497035         5.68419         5.19107 
       0.503198         5.53304         5.05713 
       0.509342         5.39988         4.92966 
       0.515458         5.26893         4.80772 
       0.521598         5.14583          4.6893 
       0.527764         5.01151         4.57383 
       0.533884         4.91842         4.46254 
           0.54         4.79872         4.35451 
       0.546137         4.69691         4.24924 
       0.552299         4.59241         4.14684 
       0.558452         4.46556         4.04812 
       0.564573         4.38024         3.95354 
       0.570708         4.28881         3.86232 
       0.576825         4.18386         3.77462 
       0.582926         4.10987         3.69003 
       0.589034         3.99501         3.60788 
       0.595184         3.92117         3.52752 
       0.601379          3.8365         3.44893 
       0.607522         3.77005         3.37327 
       0.613639         3.70523         3.30017 
       0.619772         3.60723         3.22907 
       0.625918            3.55         3.15996 
       0.632068         3.48793         3.09289 
       0.638161         3.40915         3.02841 
         0.6443         3.33992         2.96537 
       0.650464         3.26525         2.90395 
       0.656582         3.21471         2.84477 
       0.662703         3.15519         2.78726 
       0.668861         3.10179         2.73103 
       0.675024         3.03612         2.67632 
       0.681124         2.97553         2.62366 
       0.687237         2.92925         2.57229 
       0.693381         2.87636         2.52205 
       0.699536         2.80448         2.47307 
       0.705665         2.75841          2.4256 
       0.711789         2.71717         2.37943 
       0.717957          2.6633         2.33416 
        0.72409         2.61768         2.29035 
       0.730186         2.57191         2.24794 
       0.736317         2.53882         2.20639 
       0.742472         2.49525         2.16576 
       0.748622         2.44698          2.1262 
        0.75476         2.39585         2.08772 
       0.760888         2.36128         2.05027 
       0.767043         2.33359         2.01359 
       0.773185         2.28307         1.97789 
       0.779291         2.25036         1.94327 
       0.785407         2.21273         1.90943 
       0.791564         2.17915         1.87619 
       0.797719         2.14658         1.84377 
       0.803834         2.11567         1.81232 
       0.809972         2.08033          1.7815 
       0.816124         2.04285         1.75134 
       0.822261         2.00725         1.72196 
       0.828378         1.98008         1.69335 
       0.834502         1.95719         1.66536 
       0.840667         1.91647         1.63784 
       0.846816         1.88736         1.61102 
       0.852925         1.86622         1.58498 
       0.859047         1.84114         1.55946 
       0.865192         1.81104         1.53442 
       0.871341         1.78441         1.50992 
       0.877463         1.76407         1.48608 
       0.883569         1.72975         1.46281 
       0.889708         1.70591         1.43992 
       0.895864         1.68255         1.41747 
       0.902008         1.65531         1.39555 
       0.908149         1.63519         1.37411 
       0.914301         1.60264         1.35308 
       0.920448         1.58496         1.33252 
       0.926574         1.55953         1.31247 
       0.932687         1.53802         1.29287 
       0.938823         1.52417          1.2736 
       0.944975         1.50319         1.25469 
       0.951105         1.48166         1.23623 
       0.957225         1.46882         1.21817 
       0.963368           1.445         1.20042 
       0.969511         1.42303         1.18302 
       0.975621         1.40155         1.16607 
       0.981748         1.38935          1.1494 
       0.987916         1.36983         1.13296 
        0.99406         1.34771          1.1169 
        1.00019         1.33633         1.10119 
        1.00632          1.3137         1.08579 
        1.01246         1.29645         1.07067 
        1.01859         1.28417         1.05587 
        1.02471         1.26618         1.04136 
        1.03085         1.25391         1.02708 
        1.03698         1.23417          1.0131 
        1.04314         1.22039        0.999323 
        1.04929         1.20464        0.985834 
        1.05541         1.19204        0.972651 
        1.06154         1.17599        0.959677 
        1.06769         1.16164        0.946922 
        1.07382         1.14866        0.934442 
        1.07993         1.13139        0.922216 
        1.08607         1.12357         0.91016 
        1.09222         1.10651        0.898307 
        1.09836         1.09817        0.886681 
        1.10449         1.08557        0.875275 
        1.11063         1.06792        0.864059 
        1.11677         1.05544        0.853043 
         1.1229         1.04239        0.842241 
        1.12903         1.03139        0.831616 
        1.13518         1.02236        0.821168 
        1.14131         1.00789        0.810905 
        1.14745        0.991546        0.800825 
        1.15359        0.986221        0.790916 
        1.15973        0.971378         0.78117 
        1.16584        0.965917        0.771634 
        1.17197        0.953389        0.762244 
        1.17811        0.944664        0.752982 
        1.18424        0.937513        0.743902 
        1.19038        0.923265        0.734947 
        1.19652        0.912282        0.726142 
        1.20267        0.905823        0.717483 
        1.20881        0.893676        0.708967 
        1.21495        0.886073        0.700603 
        1.22108        0.876645        0.692376 
         1.2272        0.868805        0.684301 
        1.23334        0.858737        0.676337 
        1.23949        0.848842        0.668481 
        1.24562        0.842275        0.660773 
        1.25174        0.833015        0.653198 
        1.25789          0.8262         0.64572 
        1.26402         0.81501        0.638373 
        1.27014        0.807301        0.631159 
        1.27628        0.802546        0.624035 
        1.28244        0.790073        0.617008 
        1.28858        0.783607        0.610099 
        1.29471        0.778573        0.603312 
        1.30084        0.768745        0.596636 
        1.30697        0.761868         0.59005 
        1.31312        0.750786        0.583555 
        1.31925        0.745994        0.577179 
        1.32537        0.740642        0.570905 
        1.33151        0.733931        0.564701 
        1.33765        0.727432        0.558594 
        1.34378         0.71877         0.55259 
        1.34992        0.713894         0.54667 
        1.35606         0.70612        0.540824 
         1.3622        0.700783        0.535074 
        1.36833        0.693842        0.529422 
        1.37445        0.685505        0.523855 
        1.38059        0.680447        0.518351 
        1.38675        0.678514        0.512913 
        1.39288        0.670518        0.507575 
        1.39901         0.66439        0.502316 
        1.40515        0.659824         0.49712 
         1.4113        0.652495        0.491999 
        1.41742        0.647412         0.48697 
        1.42355         0.64389        0.482003 
         1.4297        0.636519         0.47709 
        1.43585        0.632008        0.472248 
        1.44198        0.629318        0.467492 
        1.44809        0.622443        0.462811 
        1.45423         0.61677        0.458177 
        1.46036        0.611741        0.453614 
        1.46649        0.608056        0.449113 
        1.47263         0.60222        0.444669 
        1.47877        0.598502        0.440288 
        1.48491        0.593574        0.435959 
        1.49104        0.588042        0.431697 
        1.49718        0.584798        0.427489 
        1.50333        0.581056        0.423331 
        1.50947        0.575773        0.419237 
         1.5156        0.572058        0.415203 
        1.52172        0.568393        0.411222 
        1.52787        0.563575        0.407286 
          1.534        0.559917        0.403406 
        1.54013        0.555496         0.39958 
        1.54627        0.552225        0.395798 
        1.55241        0.548072        0.392064 
        1.55855        0.543286        0.388383 
        1.56467        0.542088         0.38476 
         1.5708        0.536535        0.381173 
        1.57695        0.532552        0.377627 
        1.58308        0.529409        0.374134 
        1.58922         0.52551        0.370683 
        1.59535        0.522015        0.367277 
         1.6015        0.518592         0.36391 
        1.60764        0.515499        0.360586 
        1.61376         0.51127        0.357313 
        1.61989        0.509694        0.354078 
        1.62604        0.508275        0.350876 
        1.63218        0.504477        0.347716 
        1.63831        0.501107        0.344602 
        1.64444        0.499007        0.341525 
        1.65059        0.496002        0.338479 
        1.65673        0.493442        0.335473 
        1.66285        0.493162        0.332513 
        1.66898        0.490977        0.329587 
        1.67512        0.488477         0.32669 
        1.68127        0.486394        0.323826 
         1.6874        0.485866        0.321003 
        1.69353        0.482881        0.318215 
        1.69967        0.483771        0.315454 
        1.70581        0.480835        0.312726 
        1.71193        0.479568        0.310041 
        1.71806        0.478462        0.307383 
        1.72421        0.477739         0.30475 
        1.73035        0.477588        0.302151 
        1.73649        0.477362        0.299582 
        1.74262        0.476858        0.297046 
        1.74876        0.476379        0.294538 
        1.75489        0.476249        0.292064 
        1.76101        0.475218        0.289619 
        1.76715        0.475224        0.287198 
        1.77329        0.476742        0.284803 
        1.77943        0.474529        0.282434 
        1.78557        0.476639        0.280095 
        1.79171        0.477598        0.277783 
        1.79785        0.478486        0.275496 
        1.80399        0.478903        0.273236 
        1.81012        0.480988        0.271004 
        1.81625        0.481763        0.268798 
        1.82239        0.483847        0.266613 
        1.82853        0.484809        0.264454 
        1.83466        0.485727        0.262321 
        1.84078        0.487358        0.260213 
        1.84692        0.488212        0.258126 
        1.85306        0.491982        0.256059 
         1.8592        0.492977        0.254018 
        1.86533        0.496806           0.252 
        1.87147        0.500109        0.250002 
        1.87761        0.502953        0.248025 
        1.88375        0.504318        0.246071 
        1.88988        0.506769        0.244141 
        1.89601        0.511586         0.24223 
        1.90215        0.513639        0.240338 
        1.90829          0.5174        0.238468 
        1.91442        0.521929        0.236617 
        1.92056         0.52598        0.234787 
         1.9267        0.528924        0.232975 
        1.93284        0.531603        0.231181 
        1.93897        0.536391         0.22941 
        1.94509        0.544158         0.22766 
        1.95123         0.54577        0.225925 
        1.95737         0.55131        0.224206 
        1.96349        0.560538         0.22251 
        1.96964        0.563324        0.220826 
        1.97578        0.567617         0.21916 
        1.98192         0.57614        0.217513 
        1.98805        0.581968        0.215884 
        1.99419        0.584282        0.214271 
        2.00033        0.593466        0.212674 
        2.00647        0.600393        0.211094 
         2.0126        0.606081        0.209532 
        2.01874        0.613867        0.207984 
        2.02488         0.61825         0.20645 
        2.03101        0.628214        0.204935 
        2.03714        0.636907        0.203436 
        2.04328        0.646004        0.201951 
        2.04941         0.65282        0.200481 
        2.05554        0.661506        0.199028 
        2.06167        0.669868        0.197586 
        2.06781        0.681789        0.196159 
        2.07396        0.688089        0.194744 
        2.08009         0.69552        0.193346 
        2.08622        0.709552        0.191963 
        2.09237        0.716527         0.19059 
        2.09851        0.729224        0.189231 
        2.10464        0.739157        0.187887 
        2.11077        0.749294        0.186558 
        2.11691        0.763755        0.185239 
        2.12305        0.774106        0.183933 
        2.12918         0.78609        0.182642 
        2.13531        0.802913        0.181364 
        2.14145        0.809549        0.180095 
         2.1476        0.825415        0.178837 
        2.15372        0.840937        0.177597 
        2.15985        0.847792        0.176367 
        2.16599        0.864864        0.175146 
        2.17213         0.88224        0.173937 
        2.17827        0.894536         0.17274 
         2.1844         0.91432        0.171556 
        2.19054        0.929933        0.170382 
        2.19666        0.945082        0.169221 
         2.2028         0.95957         0.16807 
        2.20893        0.975479        0.166929 
        2.21508        0.990981        0.165797 
        2.22122         1.01745        0.164675 
        2.22736         1.03254        0.163566 
        2.23349         1.04442        0.162468 
        2.23962         1.06839        0.161379 
        2.24577         1.09128        0.160299 
         2.2519         1.11266        0.159231 
        2.25802         1.12969        0.158174 
        2.26417         1.15424        0.157123 
        2.27031         1.17697        0.156082 
        2.27644           1.193        0.155052 
        2.28257         1.21876        0.154033 
        2.28872         1.24483         0.15302 
        2.29486         1.26861        0.152017 
        2.30099         1.29569        0.151024 
        2.30712         1.31968        0.150041 
        2.31326         1.35293        0.149064 
         2.3194          1.3785        0.148097 
        2.32553         1.40064         0.14714 
        2.33166         1.42991        0.146191 
         2.3378         1.46253         0.14525 
        2.34394         1.49649        0.144317 
        2.35007         1.51689        0.143393 
        2.35619         1.55535        0.142479 
        2.36233         1.58763         0.14157 
        2.36848         1.62528        0.140667 
        2.37462         1.65359        0.139775 
        2.38075         1.69676         0.13889 
        2.38689         1.73296        0.138013 
        2.39303         1.76443        0.137144 
        2.39916         1.79912        0.136282 
        2.40529         1.85302        0.135429 
        2.41143         1.87856        0.134582 
        2.41757          1.9286        0.133741 
         2.4237         1.97463         0.13291 
        2.42983          2.0082        0.132086 
        2.43598         2.05331        0.131266 
        2.44211         2.09685        0.130455 
        2.44823         2.14929        0.129652 
        2.45437         2.20111        0.128854 
        2.46052         2.25504        0.128063 
        2.46665         2.31038        0.127279 
        2.47279           2.345        0.126502 
        2.47892         2.40999        0.125731 
        2.48507         2.46466        0.124965 
         2.4912         2.51895        0.124208 
