# k  (h/Mpc)    Pcb(k)  (Mpc/h)^3    Pcb_linear(k)  (Mpc/h)^3
     0.00783031         14519.7         14637.8 
       0.013688         18073.1         17987.3 
       0.019231         18085.3           18113 
      0.0249154           16333         16646.3 
      0.0312784         14169.5         14322.7 
      0.0375637           12105           12142 
      0.0433917         10346.6         10554.3 
      0.0492413         9351.44         9421.58 
      0.0555754         8301.09         8593.92 
      0.0619321         7977.51         7985.26 
       0.067871         7220.69         7455.47 
      0.0738098         6660.68         6870.44 
      0.0800417         5939.05         6181.05 
      0.0862327         5348.27         5470.27 
      0.0921407         4823.52         4839.25 
      0.0982031         4270.47          4298.2 
       0.104506          3992.5          3876.6 
       0.110769         3701.34         3588.59 
       0.116806         3483.67         3398.32 
       0.122832          3324.5         3248.69 
       0.129052         3099.69         3093.82 
       0.135211         2941.14         2913.72 
       0.141259         2799.05         2706.99 
       0.147318         2622.33         2484.27 
       0.153489         2389.61         2264.23 
       0.159709         2243.82         2070.73 
       0.165845         2152.62         1919.17 
       0.171974         2030.79         1807.02 
       0.178125         1937.89         1725.05 
       0.184229         1865.02          1660.5 
        0.19034         1762.97         1599.02 
       0.196428         1728.36          1531.2 
       0.202534         1662.54            1453 
       0.208729         1583.95         1365.76 
       0.214876         1510.09         1277.82 
       0.220989         1457.35         1196.15 
       0.227147         1393.02         1125.05 
        0.23329         1335.29         1067.29 
       0.239377         1312.82         1021.79 
       0.245482         1230.04         984.369 
       0.251667         1225.85         950.428 
       0.257832         1182.03         916.586 
       0.263955         1141.95         880.679 
       0.270079         1101.76         842.151 
        0.27624         1089.55         802.021 
       0.282372         1043.56         762.892 
        0.28843         1033.07         727.007 
       0.294538         981.099         694.949 
       0.300721         975.212         667.011 
        0.30691         936.533         642.925 
       0.313033         919.744           621.7 
       0.319153         898.364         601.696 
       0.325316          871.25         581.691 
        0.33145         850.427         561.361 
       0.337538          838.35         540.786 
       0.343633         816.485         520.249 
       0.349808         788.573         500.138 
       0.355968         783.335         481.376 
       0.362074         773.566         464.349 
       0.368217         751.004         448.866 
       0.374374         721.545         434.715 
       0.380519         721.036         421.564 
       0.386598         702.157         409.121 
       0.392688         699.834         396.879 
        0.39888         678.706         384.542 
       0.405048         669.335         372.378 
       0.411186         659.582         360.511 
       0.417313         644.938         349.113 
       0.423458         635.075         338.277 
       0.429607          624.97          328.09 
       0.435692         611.263         318.669 
       0.441815         606.918         309.759 
       0.447964         593.825         301.243 
       0.454126         585.229         293.027 
       0.460267         573.185         285.075 
       0.466387         566.486          277.32 
        0.47254         558.695         269.692 
       0.478662         555.327         262.322 
       0.484765         538.103         255.239 
       0.490885         534.346         248.427 
       0.497035         523.408         241.886 
       0.503198         518.824         235.645 
       0.509342         514.357         229.705 
       0.515458         509.706         224.023 
       0.521598         497.605         218.505 
       0.527764         488.617         213.125 
       0.533884         487.029         207.939 
           0.54         480.254         202.905 
       0.546137         477.987             198 
       0.552299         469.787         193.228 
       0.558452          466.82         188.628 
       0.564573         460.267         184.221 
       0.570708          453.69          179.97 
       0.576825         442.341         175.884 
       0.582926         442.114         171.942 
       0.589034         438.769         168.114 
       0.595184         434.756          164.37 
       0.601379         428.445         160.708 
       0.607522         421.865         157.183 
       0.613639         421.094         153.776 
       0.619772         410.802         150.463 
       0.625918          409.56         147.243 
       0.632068         403.496         144.118 
       0.638161         401.638         141.113 
         0.6443         394.664         138.176 
       0.650464         391.913         135.314 
       0.656582         389.408         132.556 
       0.662703         387.582         129.876 
       0.668861         380.639         127.256 
       0.675024         377.236         124.707 
       0.681124         374.438         122.253 
       0.687237         370.902          119.86 
       0.693381         365.996         117.519 
       0.699536         360.891         115.236 
       0.705665         359.035         113.024 
       0.711789         356.767         110.873 
       0.717957         353.731         108.764 
        0.72409         350.709         106.722 
       0.730186         346.497         104.746 
       0.736317         343.037          102.81 
       0.742472         341.501         100.916 
       0.748622           337.9         99.0731 
        0.75476         333.806         97.2803 
       0.760888         330.042          95.535 
       0.767043         329.998          93.826 
       0.773185          326.02         92.1626 
       0.779291         321.177         90.5492 
       0.785407         320.516         88.9725 
       0.791564          316.21         87.4237 
       0.797719         313.798         85.9128 
       0.803834         311.373         84.4475 
       0.809972         309.461         83.0114 
       0.816124         309.297         81.6059 
       0.822261         304.696         80.2369 
       0.828378         302.657         78.9037 
       0.834502         299.985         77.5999 
       0.840667         296.598         76.3174 
       0.846816          294.81         75.0677 
       0.852925         292.895         73.8541 
       0.859047         290.559          72.665 
       0.865192         287.401         71.4985 
       0.871341         285.092         70.3569 
       0.877463          283.32         69.2457 
       0.883569          281.68         68.1615 
       0.889708         279.068         67.0951 
       0.895864         276.666         66.0489 
       0.902008         274.633         65.0274 
       0.908149         272.376         64.0283 
       0.914301         269.589         63.0487 
       0.920448         267.581         62.0907 
       0.926574         264.629         61.1561 
       0.932687         264.971         60.2429 
       0.938823         261.612         59.3452 
       0.944975         260.056         58.4638 
       0.951105         257.952         57.6036 
       0.957225         256.533         56.7624 
       0.963368         253.383         55.9352 
       0.969511         252.319         55.1245 
       0.975621         249.298         54.3344 
       0.981748         249.492         53.5578 
       0.987916         247.282         52.7917 
        0.99406         243.556         52.0435 
        1.00019         243.178         51.3113 
        1.00632         241.337          50.594 
        1.01246         239.357         49.8895 
        1.01859         239.448         49.1996 
        1.02471          235.68         48.5237 
        1.03085         233.786         47.8582 
        1.03698         233.139         47.2068 
        1.04314          230.06         46.5647 
        1.04929         228.929         45.9362 
        1.05541         228.651         45.3219 
        1.06154         225.194         44.7174 
        1.06769         224.824         44.1231 
        1.07382         223.306         43.5415 
        1.07993         221.316         42.9719 
        1.08607         220.349         42.4101 
        1.09222         219.015         41.8578 
        1.09836         217.106         41.3161 
        1.10449          214.57         40.7846 
        1.11063         212.601         40.2619 
        1.11677         212.344         39.7487 
         1.1229         210.708         39.2453 
        1.12903         209.052         38.7502 
        1.13518         207.656         38.2634 
        1.14131         205.981         37.7852 
        1.14745         205.271         37.3155 
        1.15359         203.564         36.8537 
        1.15973         202.503         36.3996 
        1.16584         200.258         35.9553 
        1.17197         200.201         35.5177 
        1.17811         197.608         35.0862 
        1.18424          196.69         34.6631 
        1.19038         195.984         34.2458 
        1.19652         194.119         33.8355 
        1.20267           193.4          33.432 
        1.20881         191.978         33.0352 
        1.21495         190.505         32.6455 
        1.22108         189.382         32.2621 
         1.2272         187.697         31.8859 
        1.23334         186.577         31.5148 
        1.23949         185.434         31.1487 
        1.24562           184.4         30.7896 
        1.25174         182.549         30.4366 
        1.25789         181.401         30.0882 
        1.26402         179.882         29.7458 
        1.27014         178.579         29.4096 
        1.27628          177.88         29.0777 
        1.28244         177.543         28.7503 
        1.28858         175.492         28.4284 
        1.29471         173.833         28.1121 
        1.30084         173.494          27.801 
        1.30697         171.815         27.4941 
        1.31312         170.585         27.1915 
        1.31925         169.886         26.8944 
        1.32537         168.735          26.602 
        1.33151         167.233          26.313 
        1.33765         166.144         26.0284 
        1.34378         165.416         25.7486 
        1.34992         164.336         25.4728 
        1.35606         163.844         25.2004 
         1.3622         162.435         24.9325 
        1.36833         160.841         24.6691 
        1.37445         160.104         24.4097 
        1.38059         158.447         24.1532 
        1.38675         158.118         23.8998 
        1.39288         156.948         23.6511 
        1.39901         156.608          23.406 
        1.40515         154.846         23.1639 
         1.4113         153.808         22.9253 
        1.41742         152.567          22.691 
        1.42355         151.717         22.4595 
         1.4297         150.646         22.2306 
        1.43585         150.105          22.005 
        1.44198         148.881         21.7834 
        1.44809         148.229         21.5653 
        1.45423         147.204         21.3493 
        1.46036         146.512         21.1367 
        1.46649         145.106          20.927 
        1.47263         144.328         20.7199 
        1.47877         143.335         20.5158 
        1.48491          142.08          20.314 
        1.49104         141.751         20.1155 
        1.49718         140.128         19.9194 
        1.50333         139.607         19.7256 
        1.50947         139.013         19.5349 
         1.5156         137.959         19.3469 
        1.52172         136.845         19.1614 
        1.52787         135.942          18.978 
          1.534         135.428         18.7972 
        1.54013         134.333         18.6189 
        1.54627           133.6         18.4427 
        1.55241         132.513         18.2687 
        1.55855         131.577         18.0972 
        1.56467         130.876         17.9284 
         1.5708         130.166         17.7613 
        1.57695         129.231          17.596 
        1.58308         128.558         17.4333 
        1.58922         128.002         17.2725 
        1.59535         126.805         17.1138 
         1.6015         126.584         16.9568 
        1.60764         125.299         16.8019 
        1.61376         124.652         16.6494 
        1.61989         123.679         16.4987 
        1.62604         122.948         16.3495 
        1.63218           122.6         16.2023 
        1.63831          121.54         16.0572 
        1.64444         120.928         15.9138 
        1.65059         119.953         15.7719 
        1.65673         119.195         15.6318 
        1.66285         118.612         15.4938 
        1.66898         117.782         15.3575 
        1.67512         117.345         15.2226 
        1.68127         116.391         15.0891 
         1.6874         115.391         14.9575 
        1.69353         115.049         14.8276 
        1.69967         114.183          14.699 
        1.70581         113.727         14.5719 
        1.71193         112.961         14.4468 
        1.71806          112.18         14.3229 
        1.72421         111.443         14.2002 
        1.73035         111.009         14.0791 
        1.73649         110.164         13.9594 
        1.74262         109.462         13.8412 
        1.74876         109.005         13.7244 
        1.75489         107.894         13.6091 
        1.76101         107.271         13.4951 
        1.76715         106.856         13.3824 
        1.77329         106.482         13.2707 
        1.77943         105.273         13.1604 
        1.78557         104.868         13.0514 
        1.79171         104.232         12.9436 
        1.79785         103.542         12.8371 
        1.80399         102.793         12.7318 
        1.81012         102.221         12.6278 
        1.81625          101.77          12.525 
        1.82239         101.227         12.4232 
        1.82853         100.416         12.3226 
        1.83466         99.8794         12.2232 
        1.84078         99.4316          12.125 
        1.84692         98.3466         12.0277 
        1.85306         98.0683         11.9314 
         1.8592         97.5558         11.8363 
        1.86533         96.6565         11.7423 
        1.87147         96.3264         11.6492 
        1.87761         95.6186          11.557 
        1.88375         94.8671          11.466 
        1.88988         94.4394          11.376 
        1.89601         93.7193          11.287 
        1.90215         93.2348         11.1989 
        1.90829           92.74         11.1117 
        1.91442         92.1776         11.0255 
        1.92056         91.4501         10.9402 
         1.9267         91.2232         10.8558 
        1.93284         90.5881         10.7722 
        1.93897         89.8726         10.6896 
        1.94509          89.579         10.6081 
        1.95123          88.857         10.5273 
        1.95737         88.5001         10.4472 
        1.96349         87.7294         10.3681 
        1.96964         87.1832         10.2897 
        1.97578         86.7346          10.212 
        1.98192          86.491         10.1353 
        1.98805         85.8261         10.0594 
        1.99419         85.3723         9.98423 
        2.00033         84.7215         9.90981 
        2.00647          84.358         9.83618 
         2.0126         83.6498         9.76341 
        2.01874         83.1546         9.69128 
        2.02488         82.7152         9.61981 
        2.03101         82.1727          9.5492 
        2.03714         81.6876         9.47936 
        2.04328         81.2486         9.41014 
        2.04941         80.7516         9.34168 
        2.05554         80.2541         9.27394 
        2.06167         79.8661         9.20679 
        2.06781         79.2755         9.14029 
        2.07396          78.841         9.07436 
        2.08009         78.4912         9.00919 
        2.08622         77.8167         8.94474 
        2.09237         77.3235         8.88079 
        2.09851         77.0389         8.81746 
        2.10464         76.4059         8.75485 
        2.11077         76.2045         8.69293 
        2.11691         75.8263         8.63147 
        2.12305         75.0941         8.57059 
        2.12918          74.736         8.51046 
        2.13531          74.282         8.45089 
        2.14145         73.9117         8.39176 
         2.1476         73.2862         8.33312 
        2.15372         73.0026         8.27534 
        2.15985         72.5073         8.21805 
        2.16599         72.1473         8.16114 
        2.17213         71.6134         8.10483 
        2.17827         71.2659         8.04906 
         2.1844          70.802         7.99387 
        2.19054         70.5582         7.93918 
        2.19666         70.1567         7.88507 
         2.2028         69.7522         7.83143 
        2.20893           69.32         7.77826 
        2.21508         68.9392         7.72552 
        2.22122         68.5097         7.67325 
        2.22736         68.1591         7.62158 
        2.23349         67.7805          7.5704 
        2.23962         67.3535         7.51966 
        2.24577         67.0491         7.46934 
         2.2519         66.6485         7.41956 
        2.25802         66.1135          7.3703 
        2.26417         65.7831         7.32136 
        2.27031         65.4159         7.27282 
        2.27644         64.9856         7.22486 
        2.28257         64.7184         7.17734 
        2.28872         64.3651         7.13016 
        2.29486         63.9435         7.08341 
        2.30099         63.5866         7.03718 
        2.30712         63.2764         6.99134 
        2.31326         63.0216         6.94583 
         2.3194         62.5894         6.90075 
        2.32553         62.2372         6.85615 
        2.33166         61.9251         6.81197 
         2.3378         61.4984         6.76811 
        2.34394          61.152         6.72462 
        2.35007         60.8126         6.68158 
        2.35619         60.5276         6.63897 
        2.36233         60.1854         6.59663 
        2.36848         59.7746         6.55458 
        2.37462         59.4052         6.51297 
        2.38075         59.2696         6.47177 
        2.38689         58.8808         6.43089 
        2.39303         58.5324         6.39038 
        2.39916         58.1918         6.35025 
        2.40529         57.9874         6.31047 
        2.41143         57.5331           6.271 
        2.41757         57.3246         6.23185 
         2.4237         57.0816         6.19311 
        2.42983         56.7298          6.1547 
        2.43598         56.3355         6.11651 
        2.44211         56.1125         6.07871 
        2.44823         55.7735         6.04132 
        2.45437          55.374         6.00414 
        2.46052         55.1473         5.96724 
        2.46665         54.9489         5.93071 
        2.47279         54.5763         5.89451 
        2.47892         54.4363         5.85858 
        2.48507         53.9244         5.82292 
         2.4912         53.7552         5.78762 
