# k  (h/Mpc)    Pcb(k)  (Mpc/h)^3    Pcb_linear(k)  (Mpc/h)^3
     0.00783031         6134.13         6169.94 
       0.013688          7587.8         7585.24 
       0.019231         7628.96         7640.15 
      0.0249154          6949.8         7022.77 
      0.0312784         6019.57         6043.31 
      0.0375637         5127.23         5123.69 
      0.0433917         4413.37         4453.99 
      0.0492413          3975.6         3976.16 
      0.0555754         3562.54         3627.01 
      0.0619321         3390.44         3370.24 
       0.067871          3100.6         3146.71 
      0.0738098          2859.3         2899.84 
      0.0800417         2560.16         2608.91 
      0.0862327         2291.84         2308.93 
      0.0921407         2046.82         2042.61 
      0.0982031         1810.18         1814.25 
       0.104506         1672.61         1636.31 
       0.110769         1550.54         1514.75 
       0.116806         1454.89         1434.44 
       0.122832         1396.03         1371.29 
       0.129052         1310.58         1305.93 
       0.135211         1240.48         1229.91 
       0.141259         1169.94         1142.65 
       0.147318         1087.93         1048.64 
       0.153489         989.623         955.759 
       0.159709          919.33         874.085 
       0.165845         872.143         810.111 
       0.171974         815.549         762.772 
       0.178125         782.004         728.174 
       0.184229         755.802         700.926 
        0.19034          711.52         674.975 
       0.196428         696.913         646.347 
       0.202534          671.41         613.338 
       0.208729         633.464         576.514 
       0.214876         595.036         539.391 
       0.220989         570.848         504.918 
       0.227147         537.862         474.905 
        0.23329         514.391         450.526 
       0.239377         501.532         431.318 
       0.245482         470.144         415.523 
       0.251667         465.906         401.196 
       0.257832         452.063         386.911 
       0.263955         435.034         371.754 
       0.270079         418.846          355.49 
        0.27624         410.985         338.551 
       0.282372         393.405         322.034 
        0.28843          380.11         306.886 
       0.294538          363.29         293.354 
       0.300721          358.17         281.561 
        0.30691         341.703         271.394 
       0.313033         334.862         262.434 
       0.319153         321.805          253.99 
       0.325316         314.329         245.546 
        0.33145         303.997         236.964 
       0.337538         300.016         228.279 
       0.343633         289.703          219.61 
       0.349808         280.517          211.12 
       0.355968         276.005           203.2 
       0.362074         268.282         196.013 
       0.368217         261.683         189.477 
       0.374374         253.143         183.504 
       0.380519         249.003         177.952 
       0.386598         242.888           172.7 
       0.392688         239.526         167.533 
        0.39888         233.494         162.325 
       0.405048         228.302          157.19 
       0.411186         223.317         152.181 
       0.417313         218.369         147.369 
       0.423458          214.54         142.795 
       0.429607         209.428         138.495 
       0.435692         202.871         134.518 
       0.441815         201.649         130.757 
       0.447964         198.154         127.162 
       0.454126         189.854         123.694 
       0.460267         188.023         120.337 
       0.466387          185.42         117.064 
        0.47254         181.639         113.844 
       0.478662         180.121         110.733 
       0.484765         174.791         107.743 
       0.490885          172.17         104.867 
       0.497035         170.164         102.106 
       0.503198         165.498         99.4716 
       0.509342         163.118         96.9644 
       0.515458         160.734         94.5659 
       0.521598         158.686         92.2364 
       0.527764         156.209         89.9655 
       0.533884         153.902         87.7763 
           0.54         151.312         85.6514 
       0.546137         150.225         83.5807 
       0.552299         147.733         81.5666 
       0.558452         144.782         79.6248 
       0.564573         142.294         77.7646 
       0.570708         140.389         75.9702 
       0.576825         138.401         74.2453 
       0.582926         136.044         72.5814 
       0.589034         134.009         70.9654 
       0.595184           132.5         69.3849 
       0.601379         130.977         67.8389 
       0.607522         128.052         66.3508 
       0.613639         127.565         64.9129 
       0.619772         124.771         63.5144 
       0.625918         123.627         62.1551 
       0.632068         122.201         60.8358 
       0.638161         120.909         59.5675 
         0.6443         119.293         58.3275 
       0.650464         118.041         57.1195 
       0.656582         116.341         55.9554 
       0.662703         114.451         54.8241 
       0.668861         113.057         53.7182 
       0.675024         111.876         52.6421 
       0.681124         110.746         51.6062 
       0.687237         108.807         50.5958 
       0.693381         107.505         49.6077 
       0.699536          106.48         48.6442 
       0.705665         106.786         47.7105 
       0.711789         103.932         46.8024 
       0.717957         103.379          45.912 
        0.72409         101.929         45.0501 
       0.730186         100.295         44.2159 
       0.736317          100.08         43.3987 
       0.742472         99.0425         42.5995 
       0.748622         98.0254         41.8214 
        0.75476         97.0705         41.0646 
       0.760888          95.714         40.3278 
       0.767043         94.8016         39.6064 
       0.773185         93.7146         38.9042 
       0.779291         92.9944         38.2232 
       0.785407         92.0881         37.5576 
       0.791564         91.1024         36.9038 
       0.797719         89.7954         36.2661 
       0.803834           89.45         35.6475 
       0.809972         87.9848         35.0413 
       0.816124         87.4436          34.448 
       0.822261         86.7326         33.8701 
       0.828378         85.9725         33.3073 
       0.834502         85.1431          32.757 
       0.840667         84.4155         32.2156 
       0.846816          83.347         31.6881 
       0.852925         82.5785         31.1758 
       0.859047         81.6545         30.6738 
       0.865192         81.2638         30.1814 
       0.871341         80.7094         29.6995 
       0.877463         79.3717         29.2304 
       0.883569         78.8075         28.7728 
       0.889708         78.4052         28.3226 
       0.895864         77.7313          27.881 
       0.902008         76.9657         27.4498 
       0.908149          76.501          27.028 
       0.914301         75.8006         26.6145 
       0.920448         75.1281         26.2101 
       0.926574          74.476         25.8156 
       0.932687         74.1609         25.4301 
       0.938823         73.0114         25.0512 
       0.944975          72.652         24.6791 
       0.951105         71.9692          24.316 
       0.957225         71.1478         23.9609 
       0.963368         70.8726         23.6117 
       0.969511         70.4341         23.2695 
       0.975621         69.9505          22.936 
       0.981748         69.1221         22.6082 
       0.987916         68.8369         22.2848 
        0.99406         68.2376         21.9689 
        1.00019         67.5047         21.6599 
        1.00632         67.1218         21.3571 
        1.01246           66.53         21.0597 
        1.01859         65.7713         20.7684 
        1.02471         65.9395         20.4831 
        1.03085         65.1265         20.2022 
        1.03698         64.5913         19.9272 
        1.04314         63.9717         19.6562 
        1.04929         63.6227         19.3909 
        1.05541         62.9648         19.1316 
        1.06154         62.8866         18.8764 
        1.06769         62.3115         18.6255 
        1.07382         62.0065           18.38 
        1.07993         61.7035         18.1396 
        1.08607         61.0405         17.9024 
        1.09222         60.8152         17.6693 
        1.09836          60.271         17.4406 
        1.10449         59.7786         17.2163 
        1.11063         59.2973         16.9956 
        1.11677         58.8473          16.779 
         1.1229         58.6159         16.5665 
        1.12903         57.7311         16.3575 
        1.13518         57.8269          16.152 
        1.14131         57.5541         15.9501 
        1.14745         56.8394         15.7519 
        1.15359         56.7295         15.5569 
        1.15973         56.1112         15.3653 
        1.16584         55.7562         15.1777 
        1.17197         55.4886          14.993 
        1.17811         55.2089         14.8108 
        1.18424         54.5327         14.6322 
        1.19038         54.4261         14.4561 
        1.19652         54.1811         14.2829 
        1.20267          53.774         14.1125 
        1.20881         53.5225          13.945 
        1.21495         53.0385         13.7805 
        1.22108         52.6832         13.6187 
         1.2272         52.1761         13.4599 
        1.23334         52.0302         13.3032 
        1.23949         51.8061         13.1487 
        1.24562         51.4337         12.9971 
        1.25174         51.2433         12.8481 
        1.25789         50.9006          12.701 
        1.26402         50.3877         12.5565 
        1.27014          50.084         12.4146 
        1.27628          49.853         12.2745 
        1.28244         49.5509         12.1363 
        1.28858         49.3508         12.0004 
        1.29471         49.0091         11.8669 
        1.30084         48.8721         11.7355 
        1.30697         48.4613          11.606 
        1.31312         48.0314         11.4783 
        1.31925           48.03         11.3528 
        1.32537         47.7293         11.2294 
        1.33151         47.4044         11.1074 
        1.33765         47.2554         10.9873 
        1.34378         46.9129         10.8692 
        1.34992         46.4117         10.7527 
        1.35606          46.266         10.6378 
         1.3622         46.0158         10.5247 
        1.36833          45.819         10.4135 
        1.37445         45.7497          10.304 
        1.38059         45.3793         10.1957 
        1.38675          45.079         10.0888 
        1.39288         44.8965         9.98376 
        1.39901         44.5666         9.88031 
        1.40515         44.4776         9.77811 
         1.4113         44.2622         9.67739 
        1.41742         43.9122         9.57848 
        1.42355         43.7597         9.48077 
         1.4297          43.397         9.38414 
        1.43585         43.3838          9.2889 
        1.44198         43.0705         9.19535 
        1.44809         42.8862         9.10327 
        1.45423         42.7357         9.01212 
        1.46036         42.5967         8.92238 
        1.46649         42.2561         8.83384 
        1.47263          42.072         8.74643 
        1.47877         41.9683         8.66025 
        1.48491         41.6584          8.5751 
        1.49104         41.4547         8.49127 
        1.49718         41.1684         8.40851 
        1.50333         41.1465         8.32672 
        1.50947         40.9386         8.24619 
         1.5156         40.6656         8.16684 
        1.52172         40.4765         8.08854 
        1.52787         40.4654         8.01112 
          1.534          40.198          7.9348 
        1.54013         39.9315         7.85955 
        1.54627         39.8051         7.78515 
        1.55241         39.6292          7.7117 
        1.55855         39.3825         7.63931 
        1.56467         39.1474         7.56805 
         1.5708          39.192          7.4975 
        1.57695         38.8817         7.42775 
        1.58308         38.8894         7.35904 
        1.58922         38.7146         7.29116 
        1.59535         38.4797         7.22417 
         1.6015         38.2696         7.15793 
        1.60764         38.1603         7.09255 
        1.61376         37.9647         7.02817 
        1.61989         37.6902         6.96455 
        1.62604         37.7424         6.90157 
        1.63218         37.4646         6.83941 
        1.63831         37.3711         6.77816 
        1.64444         37.2365         6.71764 
        1.65059         37.0411         6.65772 
        1.65673         36.8796          6.5986 
        1.66285         36.7813         6.54037 
        1.66898         36.5658         6.48281 
        1.67512         36.5035         6.42585 
        1.68127         36.3008         6.36951 
         1.6874         36.2146         6.31398 
        1.69353         36.0286         6.25914 
        1.69967         35.8967         6.20482 
        1.70581         35.8926         6.15118 
        1.71193         35.6837         6.09837 
        1.71806         35.5499         6.04607 
        1.72421         35.3469         5.99428 
        1.73035         35.2519         5.94316 
        1.73649          35.188         5.89264 
        1.74262         35.0272         5.84276 
        1.74876         34.9801         5.79342 
        1.75489         34.7871         5.74475 
        1.76101            34.7         5.69666 
        1.76715         34.5949         5.64906 
        1.77329         34.4681         5.60194 
        1.77943         34.3078         5.55534 
        1.78557         34.1922         5.50934 
        1.79171         34.1104         5.46385 
        1.79785         34.0334         5.41888 
        1.80399         33.9212         5.37441 
        1.81012         33.8801         5.33051 
        1.81625         33.5934         5.28712 
        1.82239          33.623         5.24415 
        1.82853         33.4324         5.20168 
        1.83466         33.2652         5.15972 
        1.84078         33.2148         5.11827 
        1.84692         33.1266         5.07722 
        1.85306         33.0378         5.03656 
         1.8592         32.9107         4.99641 
        1.86533         32.7421         4.95672 
        1.87147         32.7309         4.91742 
        1.87761         32.7295         4.87853 
        1.88375         32.5527          4.8401 
        1.88988          32.503         4.80213 
        1.89601         32.3349         4.76455 
        1.90215         32.2561         4.72734 
        1.90829         32.2161         4.69055 
        1.91442         32.0376         4.65414 
        1.92056         31.9717         4.61816 
         1.9267         31.8954         4.58251 
        1.93284         31.7237         4.54723 
        1.93897         31.7164         4.51238 
        1.94509         31.6307         4.47797 
        1.95123         31.4738         4.44383 
        1.95737          31.411         4.41003 
        1.96349         31.3935         4.37667 
        1.96964         31.2289         4.34355 
        1.97578         31.2142         4.31077 
        1.98192         31.0728         4.27839 
        1.98805         31.0891         4.24633 
        1.99419         30.8921         4.21461 
        2.00033         30.7766          4.1832 
        2.00647         30.7467         4.15211 
         2.0126         30.6178          4.1214 
        2.01874         30.6393         4.09095 
        2.02488         30.5867         4.06078 
        2.03101         30.4381         4.03097 
        2.03714          30.321         4.00149 
        2.04328         30.1998         3.97227 
        2.04941         30.2199         3.94337 
        2.05554         30.1094         3.91478 
        2.06167         30.0453         3.88643 
        2.06781         29.9431         3.85836 
        2.07396         29.8626         3.83053 
        2.08009         29.8516         3.80302 
        2.08622         29.8113         3.77581 
        2.09237         29.6896         3.74882 
        2.09851         29.5475         3.72209 
        2.10464         29.5196         3.69566 
        2.11077         29.3397         3.66952 
        2.11691          29.351         3.64357 
        2.12305         29.2282         3.61788 
        2.12918         29.2531         3.59249 
        2.13531           29.15         3.56735 
        2.14145         29.0814         3.54239 
         2.1476         28.9606         3.51763 
        2.15372         28.9251         3.49324 
        2.15985         28.8328         3.46906 
        2.16599         28.7327         3.44503 
        2.17213         28.6929         3.42126 
        2.17827         28.5511         3.39772 
         2.1844         28.5002         3.37443 
        2.19054         28.4465         3.35134 
        2.19666         28.4499          3.3285 
         2.2028         28.3566         3.30586 
        2.20893          28.291         3.28341 
        2.21508         28.2097         3.26115 
        2.22122         28.0764         3.23909 
        2.22736           28.04         3.21727 
        2.23349         27.9481         3.19567 
        2.23962         27.8522         3.17425 
        2.24577          27.782         3.15301 
         2.2519         27.8029         3.13199 
        2.25802         27.7248          3.1112 
        2.26417         27.6011         3.09054 
        2.27031         27.5822         3.07005 
        2.27644         27.4887         3.04981 
        2.28257         27.4273         3.02975 
        2.28872         27.3477         3.00983 
        2.29486         27.2361          2.9901 
        2.30099         27.1516         2.97058 
        2.30712         27.2094         2.95123 
        2.31326         27.1259         2.93202 
         2.3194         27.0275         2.91299 
        2.32553         26.9062         2.89417 
        2.33166         26.8181         2.87551 
         2.3378         26.7858           2.857 
        2.34394         26.6671         2.83864 
        2.35007         26.6089         2.82048 
        2.35619         26.5871         2.80249 
        2.36233         26.5703         2.78462 
        2.36848         26.4845         2.76686 
        2.37462         26.3875          2.7493 
        2.38075         26.3689         2.73191 
        2.38689         26.3126         2.71465 
        2.39303         26.1922         2.69755 
        2.39916         26.1102         2.68061 
        2.40529         26.0723         2.66382 
        2.41143         26.0576         2.64716 
        2.41757         25.9121         2.63063 
         2.4237         25.9278         2.61428 
        2.42983         25.7692         2.59806 
        2.43598         25.7515         2.58194 
        2.44211         25.7053         2.56599 
        2.44823          25.582          2.5502 
        2.45437         25.5847         2.53451 
        2.46052         25.4975         2.51893 
        2.46665         25.4781         2.50351 
        2.47279         25.3588         2.48823 
        2.47892         25.3144         2.47306 
        2.48507         25.2515         2.45801 
         2.4912         25.2046         2.44311 
