# k  (h/Mpc)    P(k)  (Mpc/h)^3    P_linear(k)  (Mpc/h)^3
     0.00783031         11417.6         11436.3 
       0.013688         14172.8         14049.7 
       0.019231         14198.8         14150.8 
      0.0249154         12856.1         13006.7 
      0.0312784         11146.6         11192.4 
      0.0375637         9512.29         9489.12 
      0.0433917         8148.31         8248.76 
      0.0492413         7356.48         7363.75 
      0.0555754         6550.06          6717.1 
      0.0619321         6276.09         6241.51 
       0.067871         5699.08         5827.51 
      0.0738098         5255.97          5370.3 
      0.0800417         4692.49         4831.49 
      0.0862327          4217.5         4275.94 
      0.0921407         3791.25         3782.72 
      0.0982031         3354.14         3359.82 
       0.104506         3124.87         3030.27 
       0.110769         2896.59         2805.15 
       0.116806         2722.35         2656.43 
       0.122832         2603.22         2539.47 
       0.129052         2431.92         2418.42 
       0.135211         2306.23         2277.64 
       0.141259          2188.3         2116.04 
       0.147318         2044.69         1941.94 
       0.153489         1861.78         1769.94 
       0.159709         1743.19         1618.69 
       0.165845          1665.8         1500.21 
       0.171974         1567.07         1412.55 
       0.178125         1497.54         1348.48 
       0.184229         1444.15         1298.02 
        0.19034         1360.23         1249.96 
       0.196428         1334.88         1196.94 
       0.202534         1285.65         1135.81 
       0.208729         1220.72         1067.62 
       0.214876         1157.27         998.872 
       0.220989         1115.64         935.031 
       0.227147         1061.48         879.452 
        0.23329         1016.82         834.307 
       0.239377         997.159         798.736 
       0.245482         932.806         769.486 
       0.251667         928.523         742.955 
       0.257832         897.114         716.499 
       0.263955         866.184          688.43 
       0.270079         834.855         658.314 
        0.27624         824.934         626.944 
       0.282372         789.624         596.356 
        0.28843         775.782         568.304 
       0.294538         736.983         543.246 
       0.300721         732.135         521.407 
        0.30691         700.744         502.577 
       0.313033         688.472         485.986 
       0.319153         668.824          470.35 
       0.325316         649.538         454.712 
        0.33145             632         438.818 
       0.337538         624.483         422.735 
       0.343633          605.52         406.682 
       0.349808         584.934         390.959 
       0.355968          580.64         376.294 
       0.362074         570.631         362.984 
       0.368217         555.286         350.882 
       0.374374         532.857         339.819 
       0.380519          530.44         329.539 
       0.386598         517.392         319.812 
       0.392688         514.788         310.243 
        0.39888         499.583         300.599 
       0.405048         490.832         291.089 
       0.411186         482.467         281.814 
       0.417313          472.41         272.903 
       0.423458         465.316         264.434 
       0.429607         456.371         256.469 
       0.435692         445.462         249.105 
       0.441815           442.5          242.14 
       0.447964         433.247         235.484 
       0.454126          422.66         229.061 
       0.460267         416.307         222.845 
       0.466387         411.295         216.783 
        0.47254         403.191         210.819 
       0.478662         401.999         205.058 
       0.484765         389.191         199.522 
       0.490885          385.63         194.197 
       0.497035         378.678         189.084 
       0.503198         372.892         184.205 
       0.509342         370.291         179.562 
       0.515458         365.637          175.12 
       0.521598         358.285         170.807 
       0.527764         351.917         166.601 
       0.533884         349.852         162.547 
           0.54         344.598         158.612 
       0.546137         343.425         154.777 
       0.552299         336.439         151.048 
       0.558452          334.12         147.452 
       0.564573         328.882         144.007 
       0.570708         323.224         140.684 
       0.576825         317.237          137.49 
       0.582926         315.062         134.408 
       0.589034         312.409         131.416 
       0.595184         309.459         128.489 
       0.601379         305.454         125.626 
       0.607522         300.468          122.87 
       0.613639         298.929         120.208 
       0.619772         291.841         117.618 
       0.625918         290.874         115.101 
       0.632068         286.456         112.658 
       0.638161         285.066         110.309 
         0.6443         280.321         108.013 
       0.650464         277.815         105.776 
       0.656582         276.082          103.62 
       0.662703         274.248         101.525 
       0.668861         269.099         99.4769 
       0.675024         266.326         97.4841 
       0.681124         264.951         95.5658 
       0.687237         261.815         93.6949 
       0.693381         257.922          91.865 
       0.699536         255.526         90.0807 
       0.705665         253.874         88.3517 
       0.711789         250.987           86.67 
       0.717957         249.673         85.0211 
        0.72409         246.685         83.4251 
       0.730186         244.065         81.8804 
       0.736317         241.439          80.367 
       0.742472         240.175         78.8869 
       0.748622         237.998          77.446 
        0.75476         235.783         76.0446 
       0.760888         232.704         74.6802 
       0.767043         232.347         73.3443 
       0.773185         229.517          72.044 
       0.779291         225.467         70.7828 
       0.785407         225.044         69.5503 
       0.791564         222.713         68.3396 
       0.797719         219.883         67.1585 
       0.803834         218.861         66.0131 
       0.809972         217.094         64.8905 
       0.816124         217.092         63.7917 
       0.822261         213.834         62.7216 
       0.828378         212.047         61.6794 
       0.834502         211.284         60.6603 
       0.840667         207.988         59.6577 
       0.846816         206.461         58.6808 
       0.852925         205.402         57.7322 
       0.859047         203.603         56.8027 
       0.865192         201.731         55.8907 
       0.871341         199.871         54.9984 
       0.877463         198.107         54.1297 
       0.883569         197.297         53.2822 
       0.889708         195.399         52.4486 
       0.895864         193.131         51.6308 
       0.902008         192.209         50.8323 
       0.908149         191.269         50.0513 
       0.914301         188.964         49.2855 
       0.920448         187.443         48.5366 
       0.926574         186.191         47.8061 
       0.932687         185.988         47.0922 
       0.938823         183.602         46.3904 
       0.944975         181.797         45.7015 
       0.951105         180.906         45.0291 
       0.957225         179.336         44.3714 
       0.963368         177.265         43.7248 
       0.969511         176.814         43.0911 
       0.975621         175.027         42.4735 
       0.981748         174.855         41.8664 
       0.987916         172.922         41.2675 
        0.99406         171.206         40.6826 
        1.00019         171.017         40.1103 
        1.00632          169.17         39.5496 
        1.01246         168.141         38.9989 
        1.01859         167.362         38.4596 
        1.02471         165.679         37.9312 
        1.03085         163.667          37.411 
        1.03698         163.188         36.9018 
        1.04314         161.666         36.3999 
        1.04929         160.667         35.9086 
        1.05541         159.904         35.4284 
        1.06154         158.641         34.9558 
        1.06769         158.489         34.4912 
        1.07382         157.119         34.0366 
        1.07993         155.618         33.5913 
        1.08607         154.637         33.1522 
        1.09222         153.813         32.7204 
        1.09836         152.401          32.297 
        1.10449         150.863         31.8815 
        1.11063         149.648         31.4729 
        1.11677          149.41         31.0717 
         1.1229         147.821         30.6782 
        1.12903         146.965         30.2912 
        1.13518         146.388         29.9107 
        1.14131         145.208         29.5369 
        1.14745         144.391         29.1697 
        1.15359         143.451         28.8087 
        1.15973         142.888         28.4538 
        1.16584         141.153         28.1064 
        1.17197         140.437         27.7644 
        1.17811         139.624          27.427 
        1.18424         138.699         27.0963 
        1.19038         138.354         26.7701 
        1.19652         137.176         26.4494 
        1.20267         136.409          26.134 
        1.20881         135.362         25.8238 
        1.21495         134.519         25.5191 
        1.22108         133.665         25.2195 
         1.2272         132.594         24.9253 
        1.23334         131.812         24.6352 
        1.23949         130.894         24.3491 
        1.24562         130.145         24.0683 
        1.25174         128.703         23.7924 
        1.25789         128.318           23.52 
        1.26402         127.415         23.2524 
        1.27014         126.312         22.9897 
        1.27628         125.895         22.7302 
        1.28244         125.392         22.4742 
        1.28858         124.647         22.2226 
        1.29471         123.196         21.9754 
        1.30084         122.956         21.7322 
        1.30697         121.978         21.4923 
        1.31312         121.494         21.2557 
        1.31925         120.476         21.0235 
        1.32537         119.873         20.7949 
        1.33151         118.687          20.569 
        1.33765         118.345         20.3465 
        1.34378         117.678         20.1278 
        1.34992         117.076         19.9122 
        1.35606         116.312         19.6993 
         1.3622         115.383         19.4898 
        1.36833         114.707         19.2839 
        1.37445         113.967         19.0812 
        1.38059         113.432         18.8807 
        1.38675          112.61         18.6826 
        1.39288          112.09         18.4882 
        1.39901         111.654         18.2966 
        1.40515         110.887         18.1073 
         1.4113         109.842         17.9208 
        1.41742         109.458         17.7377 
        1.42355         108.652         17.5567 
         1.4297         108.167         17.3778 
        1.43585         107.267         17.2014 
        1.44198          106.77         17.0282 
        1.44809         106.103         16.8576 
        1.45423         105.463         16.6888 
        1.46036         105.021         16.5227 
        1.46649         104.331         16.3587 
        1.47263         103.878         16.1968 
        1.47877         103.325         16.0373 
        1.48491         102.345         15.8796 
        1.49104         101.879         15.7243 
        1.49718         101.091         15.5711 
        1.50333         100.634         15.4196 
        1.50947         100.241         15.2705 
         1.5156         99.5528         15.1235 
        1.52172         98.9096         14.9785 
        1.52787         98.6137         14.8352 
          1.534         97.8461         14.6938 
        1.54013          97.073         14.5545 
        1.54627         96.7881         14.4167 
        1.55241         96.1926         14.2807 
        1.55855         95.5316         14.1466 
        1.56467         95.2276         14.0147 
         1.5708         94.5639          13.884 
        1.57695         94.3336         13.7549 
        1.58308         93.3932         13.6276 
        1.58922         93.2732         13.5019 
        1.59535         92.6483         13.3779 
         1.6015         92.0199         13.2552 
        1.60764         91.5272         13.1341 
        1.61376          91.259         13.0149 
        1.61989         90.4161         12.8971 
        1.62604         90.0944         12.7805 
        1.63218          89.648         12.6654 
        1.63831         88.8964         12.5519 
        1.64444         88.4578         12.4399 
        1.65059         88.0928         12.3289 
        1.65673         87.3549         12.2194 
        1.66285         87.1386         12.1116 
        1.66898         86.5329          12.005 
        1.67512         86.2217         11.8995 
        1.68127          85.569         11.7952 
         1.6874         85.0541         11.6924 
        1.69353         84.6338         11.5908 
        1.69967         83.9685         11.4902 
        1.70581          83.899         11.3909 
        1.71193         83.4728         11.2931 
        1.71806         82.7357         11.1962 
        1.72421          82.466         11.1003 
        1.73035         81.7674         11.0057 
        1.73649         81.4566         10.9121 
        1.74262         80.9253         10.8197 
        1.74876         80.7163         10.7284 
        1.75489         79.8441         10.6383 
        1.76101         79.6596         10.5492 
        1.76715          79.134          10.461 
        1.77329         78.8413         10.3738 
        1.77943         78.3722         10.2875 
        1.78557         78.0563         10.2023 
        1.79171         77.3867         10.1181 
        1.79785         77.1504         10.0348 
        1.80399         76.7587         9.95245 
        1.81012         76.2669         9.87115 
        1.81625         75.8256          9.7908 
        1.82239         75.5801         9.71123 
        1.82853         75.2025         9.63258 
        1.83466         74.7298         9.55488 
        1.84078         74.4631         9.47812 
        1.84692         73.8794         9.40209 
        1.85306         73.3819         9.32679 
         1.8592         73.0609         9.25245 
        1.86533         72.7554         9.17895 
        1.87147         72.1275         9.10617 
        1.87761         71.9085         9.03415 
        1.88375         71.5481           8.963 
        1.88988         71.2372         8.89268 
        1.89601         70.7806         8.82309 
        1.90215         70.4148         8.75418 
        1.90829         70.0419         8.68605 
        1.91442         69.6214         8.61863 
        1.92056         69.2153         8.55199 
         1.9267         68.9915         8.48599 
        1.93284         68.4778         8.42064 
        1.93897         67.9949         8.35611 
        1.94509         67.7634         8.29239 
        1.95123         67.4729         8.22918 
        1.95737         67.1459         8.16658 
        1.96349         66.6409         8.10479 
        1.96964         66.3215         8.04347 
        1.97578         65.9803         7.98276 
        1.98192         65.7866         7.92279 
        1.98805         65.3898         7.86344 
        1.99419         64.9352         7.80469 
        2.00033         64.6683         7.74652 
        2.00647         64.4688         7.68896 
         2.0126         63.8199         7.63208 
        2.01874          63.506         7.57569 
        2.02488         63.2097         7.51982 
        2.03101           63.04         7.46462 
        2.03714         62.5637         7.41003 
        2.04328         62.2313         7.35593 
        2.04941         61.8754         7.30241 
        2.05554         61.6082         7.24946 
        2.06167         61.2706         7.19696 
        2.06781         60.9436         7.14498 
        2.07396         60.6561         7.09344 
        2.08009         60.3447          7.0425 
        2.08622          60.014         6.99212 
        2.09237         59.6372         6.94213 
        2.09851         59.4919         6.89262 
        2.10464         59.0773         6.84368 
        2.11077         58.7297         6.79527 
        2.11691         58.5018         6.74723 
        2.12305         58.1479         6.69965 
        2.12918         57.8442         6.65264 
        2.13531         57.4662         6.60607 
        2.14145         57.3013         6.55985 
         2.1476          57.042         6.51401 
        2.15372         56.7503         6.46885 
        2.15985         56.3774         6.42406 
        2.16599         56.0722         6.37957 
        2.17213         55.8408         6.33555 
        2.17827         55.4365         6.29196 
         2.1844         55.1383         6.24882 
        2.19054          55.006         6.20606 
        2.19666         54.6609         6.16377 
         2.2028         54.4862         6.12184 
        2.20893         54.1572         6.08027 
        2.21508         53.7798         6.03905 
        2.22122         53.5602         5.99819 
        2.22736         53.3987          5.9578 
        2.23349          52.974         5.91779 
        2.23962         52.7574         5.87813 
        2.24577         52.4911         5.83879 
         2.2519         52.2209         5.79987 
        2.25802         51.9501         5.76137 
        2.26417         51.6492         5.72312 
        2.27031         51.4275         5.68517 
        2.27644         51.3353         5.64768 
        2.28257         50.9277         5.61054 
        2.28872         50.6669         5.57365 
        2.29486         50.3986         5.53711 
        2.30099         50.2179         5.50097 
        2.30712         49.9244         5.46513 
        2.31326         49.6887         5.42956 
         2.3194         49.4451         5.39432 
        2.32553         49.0571         5.35946 
        2.33166         48.8813         5.32492 
         2.3378         48.6433         5.29063 
        2.34394         48.4108         5.25664 
        2.35007         48.0661           5.223 
        2.35619         48.0078         5.18969 
        2.36233         47.7472         5.15659 
        2.36848         47.4421         5.12372 
        2.37462         47.2781         5.09119 
        2.38075         47.0824         5.05899 
        2.38689         46.7713         5.02703 
        2.39303         46.6039         4.99536 
        2.39916         46.4085         4.96399 
        2.40529         46.1302         4.93289 
        2.41143         45.8781         4.90204 
        2.41757         45.6536         4.87144 
         2.4237         45.5055         4.84115 
        2.42983          45.242         4.81113 
        2.43598         45.0054         4.78128 
        2.44211         44.8527         4.75173 
        2.44823         44.4597          4.7225 
        2.45437         44.3829         4.69343 
        2.46052         44.1094         4.66459 
        2.46665         43.9945         4.63604 
        2.47279         43.7791         4.60774 
        2.47892         43.5914         4.57965 
        2.48507         43.3101         4.55178 
         2.4912         43.2152         4.52419 
