# k  (h/Mpc)    P(k)  (Mpc/h)^3    P_linear(k)  (Mpc/h)^3
     0.00783031         553.827         554.605 
       0.013688         680.558          682.25 
       0.019231         688.047         687.595 
      0.0249154         632.954         632.243 
      0.0312784         546.611         544.199 
      0.0375637         464.099         461.459 
      0.0433917         402.783         401.184 
      0.0492413         361.126         358.171 
      0.0555754         327.165         326.739 
      0.0619321         306.727         303.621 
       0.067871         284.234         283.492 
      0.0738098         262.206         261.258 
      0.0800417         235.964         235.052 
      0.0862327           209.7         208.029 
      0.0921407         185.714         184.036 
      0.0982031         164.729         163.464 
       0.104506         149.705         147.432 
       0.110769         138.777         136.481 
       0.116806         130.744         129.246 
       0.122832         125.435         123.557 
       0.129052         118.897         117.668 
       0.135211         112.148         110.819 
       0.141259         104.644         102.957 
       0.147318         96.5669         94.4865 
       0.153489         87.9214          86.118 
       0.159709         80.5444          78.759 
       0.165845          75.426         72.9949 
       0.171974         70.4108         68.7296 
       0.178125         67.4988         65.6122 
       0.184229         65.1743         63.1571 
        0.19034         62.3107         60.8189 
       0.196428         60.1305         58.2395 
       0.202534         57.4236         55.2651 
       0.208729         53.8609         51.9472 
       0.214876         50.3537         48.6023 
       0.220989         47.5084         45.4961 
       0.227147          44.498         42.7918 
        0.23329         42.2935         40.5952 
       0.239377         40.6642         38.8645 
       0.245482         38.9384         37.4413 
       0.251667         37.9818         36.1504 
       0.257832         36.6513         34.8632 
       0.263955         35.2508         33.4974 
       0.270079         33.8244         32.0321 
        0.27624         32.4592         30.5057 
       0.282372         30.9232         29.0174 
        0.28843          29.477         27.6525 
       0.294538         28.2767         26.4332 
       0.300721         27.3111         25.3706 
        0.30691         26.1397         24.4544 
       0.313033          25.376         23.6471 
       0.319153         24.3882         22.8863 
       0.325316         23.8753         22.1254 
        0.33145          23.077          21.352 
       0.337538         22.2556         20.5695 
       0.343633          21.397         19.7884 
       0.349808         20.7162         19.0233 
       0.355968         19.9702         18.3098 
       0.362074         19.3109         17.6622 
       0.368217         18.7104         17.0733 
       0.374374         18.1102          16.535 
       0.380519         17.6348         16.0348 
       0.386598         17.1895         15.5615 
       0.392688          16.729         15.0959 
        0.39888         16.2495         14.6266 
       0.405048         15.7723         14.1639 
       0.411186         15.3383         13.7126 
       0.417313         14.8265          13.279 
       0.423458         14.4144         12.8669 
       0.429607         13.9866         12.4793 
       0.435692         13.6035         12.1211 
       0.441815         13.2719         11.7821 
       0.447964         13.0103         11.4583 
       0.454126         12.5817         11.1457 
       0.460267         12.2992         10.8433 
       0.466387         11.9364         10.5483 
        0.47254         11.6934         10.2581 
       0.478662         11.4303         9.97781 
       0.484765         11.0901         9.70842 
       0.490885         10.8239         9.44933 
       0.497035         10.6434         9.20051 
       0.503198         10.3665         8.96313 
       0.509342          10.106          8.7372 
       0.515458         9.88337         8.52108 
       0.521598         9.66703         8.31119 
       0.527764         9.42105         8.10655 
       0.533884          9.2526         7.90929 
           0.54         9.03236         7.71783 
       0.546137         8.85423         7.53124 
       0.552299         8.67529         7.34976 
       0.558452         8.42586         7.17479 
       0.564573         8.28408         7.00715 
       0.570708         8.12085         6.84548 
       0.576825         7.90875         6.69004 
       0.582926         7.78043         6.54012 
       0.589034         7.56711         6.39452 
       0.595184         7.44085         6.25209 
       0.601379         7.27808         6.11279 
       0.607522         7.16068          5.9787 
       0.613639         7.05535         5.84913 
       0.619772         6.86326         5.72312 
       0.625918         6.78298         5.60064 
       0.632068         6.66375         5.48176 
       0.638161         6.51246         5.36748 
         0.6443         6.37828         5.25574 
       0.650464         6.24296         5.14689 
       0.656582         6.16155           5.042 
       0.662703         6.05087         4.94006 
       0.668861         5.95304         4.84041 
       0.675024          5.8245         4.74344 
       0.681124         5.71864          4.6501 
       0.687237         5.63396         4.55906 
       0.693381         5.53969         4.47002 
       0.699536         5.39324          4.3832 
       0.705665         5.32021         4.29907 
       0.711789          5.2364         4.21724 
       0.717957         5.14282         4.13701 
        0.72409         5.04976         4.05935 
       0.730186         4.97063         3.98419 
       0.736317         4.91581         3.91055 
       0.742472         4.83477         3.83853 
       0.748622         4.74212         3.76842 
        0.75476         4.64687         3.70023 
       0.760888         4.58608         3.63384 
       0.767043         4.53049         3.56883 
       0.773185          4.4365         3.50556 
       0.779291         4.38176          3.4442 
       0.785407         4.30855         3.38422 
       0.791564         4.24593         3.32531 
       0.797719         4.17943         3.26784 
       0.803834         4.12967         3.21211 
       0.809972         4.06992         3.15748 
       0.816124         3.99319         3.10402 
       0.822261         3.92377         3.05195 
       0.828378         3.87509         3.00124 
       0.834502         3.83868         2.95165 
       0.840667         3.75547         2.90287 
       0.846816         3.69874         2.85533 
       0.852925          3.6647         2.80917 
       0.859047         3.61557         2.76394 
       0.865192         3.56769         2.71957 
       0.871341         3.51964         2.67615 
       0.877463         3.47234         2.63388 
       0.883569         3.40612         2.59264 
       0.889708         3.36021         2.55208 
       0.895864         3.32136         2.51229 
       0.902008         3.26742         2.47343 
       0.908149         3.23207         2.43543 
       0.914301         3.16918         2.39817 
       0.920448         3.13376         2.36173 
       0.926574          3.0861         2.32618 
       0.932687         3.04962         2.29144 
       0.938823         3.02051          2.2573 
       0.944975         2.98004         2.22377 
       0.951105         2.94162         2.19106 
       0.957225         2.92158         2.15906 
       0.963368         2.87449         2.12759 
       0.969511         2.83143         2.09676 
       0.975621         2.79093         2.06671 
       0.981748         2.76746         2.03717 
       0.987916         2.72957         2.00802 
        0.99406         2.68307         1.97957 
        1.00019         2.66334         1.95172 
        1.00632         2.62636         1.92443 
        1.01246         2.59358         1.89764 
        1.01859         2.56689         1.87139 
        1.02471         2.53199         1.84568 
        1.03085          2.5066         1.82037 
        1.03698         2.47002         1.79559 
        1.04314         2.44847         1.77117 
        1.04929         2.41484         1.74727 
        1.05541         2.38764          1.7239 
        1.06154         2.36226         1.70091 
        1.06769         2.33764          1.6783 
        1.07382         2.30782         1.65618 
        1.07993         2.27277         1.63451 
        1.08607         2.26027         1.61314 
        1.09222         2.22865         1.59214 
        1.09836         2.21207         1.57153 
        1.10449         2.18677         1.55131 
        1.11063         2.15676         1.53143 
        1.11677          2.1315         1.51191 
         1.1229         2.10562         1.49276 
        1.12903         2.08424         1.47393 
        1.13518         2.06815         1.45542 
        1.14131         2.03762         1.43723 
        1.14745          2.0061         1.41936 
        1.15359         1.99832          1.4018 
        1.15973         1.96687         1.38453 
        1.16584         1.95831         1.36762 
        1.17197         1.93523         1.35098 
        1.17811         1.91461         1.33457 
        1.18424         1.90054         1.31847 
        1.19038         1.87585          1.3026 
        1.19652         1.85642           1.287 
        1.20267         1.84119         1.27165 
        1.20881         1.81827         1.25655 
        1.21495         1.80423         1.24173 
        1.22108         1.78711         1.22715 
         1.2272         1.77362         1.21284 
        1.23334         1.75063         1.19872 
        1.23949         1.72946          1.1848 
        1.24562          1.7195         1.17114 
        1.25174         1.69931         1.15771 
        1.25789         1.68479         1.14446 
        1.26402         1.66408         1.13144 
        1.27014         1.64982         1.11865 
        1.27628         1.64243         1.10602 
        1.28244         1.61755         1.09357 
        1.28858          1.6047         1.08132 
        1.29471          1.5927         1.06929 
        1.30084         1.57655         1.05746 
        1.30697         1.56537         1.04579 
        1.31312         1.53885         1.03428 
        1.31925         1.53278         1.02298 
        1.32537         1.51899         1.01186 
        1.33151         1.50802         1.00086 
        1.33765         1.49224        0.990038 
        1.34378         1.47673        0.979396 
        1.34992         1.46971        0.968903 
        1.35606         1.45134        0.958542 
         1.3622         1.44205        0.948352 
        1.36833         1.42871        0.938334 
        1.37445         1.41395        0.928467 
        1.38059         1.40455        0.918711 
        1.38675         1.39935        0.909073 
        1.39288         1.38235        0.899612 
        1.39901         1.37047        0.890291 
        1.40515          1.3599        0.881081 
         1.4113         1.34993        0.872006 
        1.41742         1.33747        0.863094 
        1.42355         1.33222         0.85429 
         1.4297          1.3155        0.845582 
        1.43585         1.30868           0.837 
        1.44198         1.30289        0.828571 
        1.44809         1.28558        0.820274 
        1.45423         1.27572         0.81206 
        1.46036          1.2669        0.803974 
        1.46649         1.25735        0.795996 
        1.47263         1.24758         0.78812 
        1.47877         1.23879        0.780354 
        1.48491         1.22915        0.772681 
        1.49104         1.22123        0.765128 
        1.49718         1.21538         0.75767 
        1.50333         1.20617        0.750301 
        1.50947         1.19778        0.743044 
         1.5156         1.18891        0.735894 
        1.52172         1.18112        0.728839 
        1.52787          1.1711        0.721862 
          1.534         1.16464        0.714985 
        1.54013         1.15605        0.708205 
        1.54627         1.14554        0.701501 
        1.55241         1.13959        0.694883 
        1.55855         1.13253         0.68836 
        1.56467         1.12513        0.681939 
         1.5708         1.11514        0.675582 
        1.57695         1.10999        0.669296 
        1.58308         1.10614        0.663105 
        1.58922         1.09726        0.656989 
        1.59535         1.09174        0.650952 
         1.6015         1.08603        0.644984 
        1.60764         1.07835        0.639093 
        1.61376         1.07019        0.633292 
        1.61989         1.06528        0.627558 
        1.62604         1.06223        0.621884 
        1.63218         1.05696        0.616283 
        1.63831         1.04827        0.610764 
        1.64444         1.04404        0.605311 
        1.65059         1.04089        0.599911 
        1.65673         1.03368        0.594584 
        1.66285         1.03134        0.589336 
        1.66898         1.02912        0.584151 
        1.67512         1.02276        0.579017 
        1.68127         1.01849        0.573941 
         1.6874         1.01741        0.568937 
        1.69353         1.01303        0.563996 
        1.69967         1.00908        0.559102 
        1.70581         1.00697        0.554268 
        1.71193         1.00362        0.549509 
        1.71806         1.00132        0.544797 
        1.72421        0.998945         0.54013 
        1.73035        0.998531        0.535524 
        1.73649        0.997839        0.530972 
        1.74262         0.99657        0.526477 
        1.74876        0.994118        0.522031 
        1.75489        0.992508        0.517646 
        1.76101        0.989628        0.513312 
        1.76715        0.990254        0.509023 
        1.77329        0.990136        0.504777 
        1.77943        0.987151        0.500578 
        1.78557        0.989136        0.496433 
        1.79171         0.99125        0.492335 
        1.79785         0.99154        0.488282 
        1.80399        0.992335        0.484275 
        1.81012         0.99597         0.48032 
        1.81625        0.996965         0.47641 
        1.82239         1.00211        0.472538 
        1.82853        0.999386        0.468711 
        1.83466         1.00098         0.46493 
        1.84078         1.00265        0.461195 
        1.84692         1.00578        0.457496 
        1.85306         1.01075        0.453832 
         1.8592         1.01128        0.450214 
        1.86533         1.01805        0.446638 
        1.87147         1.02472        0.443097 
        1.87761         1.02838        0.439592 
        1.88375         1.02586         0.43613 
        1.88988         1.03103        0.432709 
        1.89601         1.03803        0.429322 
        1.90215         1.04113        0.425969 
        1.90829         1.04734        0.422654 
        1.91442         1.05328        0.419373 
        1.92056         1.05902        0.416131 
         1.9267         1.06546        0.412919 
        1.93284         1.06981        0.409739 
        1.93897         1.07551        0.406599 
        1.94509         1.08893        0.403499 
        1.95123         1.09237        0.400423 
        1.95737         1.10156        0.397377 
        1.96349         1.11331        0.394371 
        1.96964         1.11763        0.391387 
        1.97578          1.1269        0.388433 
        1.98192         1.13758        0.385515 
        1.98805         1.14848        0.382627 
        1.99419         1.15075        0.379768 
        2.00033         1.16534        0.376938 
        2.00647         1.17991        0.374137 
         2.0126         1.18444        0.371369 
        2.01874         1.19978        0.368625 
        2.02488          1.2088        0.365907 
        2.03101         1.22109        0.363221 
        2.03714         1.23451        0.360565 
        2.04328         1.24653        0.357932 
        2.04941         1.25565        0.355328 
        2.05554         1.27402        0.352751 
        2.06167         1.28504        0.350197 
        2.06781         1.30026        0.347668 
        2.07396         1.31578         0.34516 
        2.08009         1.32874        0.342681 
        2.08622         1.34806        0.340229 
        2.09237         1.36207        0.337797 
        2.09851         1.37746        0.335388 
        2.10464         1.39494        0.333007 
        2.11077         1.41219        0.330651 
        2.11691         1.43188        0.328313 
        2.12305         1.44727        0.325998 
        2.12918         1.46442        0.323711 
        2.13531         1.49288        0.321445 
        2.14145         1.50389        0.319196 
         2.1476         1.52692        0.316965 
        2.15372         1.55465        0.314768 
        2.15985         1.56159        0.312588 
        2.16599          1.5942        0.310424 
        2.17213         1.61464        0.308282 
        2.17827         1.64096        0.306161 
         2.1844         1.67255        0.304061 
        2.19054         1.69044        0.301981 
        2.19666         1.71259        0.299923 
         2.2028         1.72831        0.297883 
        2.20893         1.75795         0.29586 
        2.21508          1.7838        0.293854 
        2.22122          1.8255        0.291866 
        2.22736         1.85556        0.289901 
        2.23349         1.86949        0.287954 
        2.23962         1.90268        0.286024 
        2.24577         1.93174         0.28411 
         2.2519         1.97078        0.282216 
        2.25802         1.99339        0.280343 
        2.26417          2.0338        0.278481 
        2.27031         2.07227        0.276635 
        2.27644         2.10002        0.274811 
        2.28257         2.13831        0.273003 
        2.28872         2.17147        0.271209 
        2.29486         2.20855         0.26943 
        2.30099         2.24496        0.267672 
        2.30712         2.29016        0.265928 
        2.31326         2.33041        0.264197 
         2.3194         2.36472        0.262483 
        2.32553         2.40702        0.260786 
        2.33166         2.44785        0.259105 
         2.3378          2.4846        0.257437 
        2.34394         2.54959        0.255783 
        2.35007         2.57057        0.254146 
        2.35619         2.63002        0.252525 
        2.36233         2.68555        0.250915 
        2.36848         2.72551        0.249315 
        2.37462         2.78455        0.247733 
        2.38075         2.83899        0.246166 
        2.38689         2.89279        0.244611 
        2.39303         2.92967        0.243069 
        2.39916         2.99073        0.241543 
        2.40529          3.0491         0.24003 
        2.41143         3.08937        0.238529 
        2.41757         3.17259         0.23704 
         2.4237         3.23256        0.235566 
        2.42983         3.28046        0.234105 
        2.43598          3.3272        0.232653 
        2.44211         3.40489        0.231215 
        2.44823         3.47806        0.229792 
        2.45437         3.53432        0.228378 
        2.46052         3.60683        0.226975 
        2.46665         3.70177        0.225585 
        2.47279         3.74723        0.224208 
        2.47892         3.81908        0.222842 
        2.48507         3.90683        0.221485 
         2.4912         3.98515        0.220143 
