# k  (h/Mpc)    P(k)  (Mpc/h)^3    P_linear(k)  (Mpc/h)^3
     0.00783031         18126.6           18140 
       0.013688         22572.2         22280.5 
       0.019231         22531.1         22437.9 
      0.0249154         20275.4         20622.1 
      0.0312784         17590.7         17744.5 
      0.0375637         15040.8         15043.4 
      0.0433917         12822.4         13076.6 
      0.0492413         11601.2         11673.4 
      0.0555754         10262.1         10648.1 
      0.0619321         9891.44         9894.02 
       0.067871         8921.32         9237.64 
      0.0738098         8231.61          8512.8 
      0.0800417         7329.66         7658.64 
      0.0862327         6614.79         6777.96 
      0.0921407          5987.3          5996.1 
      0.0982031         5306.98         5325.72 
       0.104506         4978.77         4803.34 
       0.110769          4617.2         4446.47 
       0.116806         4353.84         4210.72 
       0.122832         4145.44         4025.31 
       0.129052          3858.2         3833.43 
       0.135211         3661.35         3610.27 
       0.141259         3496.02         3354.12 
       0.147318         3285.49         3078.15 
       0.153489         2997.54         2805.51 
       0.159709         2821.65         2565.75 
       0.165845         2719.47         2377.96 
       0.171974         2572.39            2239 
       0.178125         2452.23         2137.44 
       0.184229          2352.9         2057.45 
        0.19034         2237.91         1981.27 
       0.196428         2189.29         1897.24 
       0.202534         2101.76         1800.34 
       0.208729         2010.38         1692.25 
       0.214876         1928.76         1583.28 
       0.220989         1862.74         1482.09 
       0.227147         1788.91         1393.99 
        0.23329         1716.27         1322.43 
       0.239377         1691.82         1266.05 
       0.245482         1589.78         1219.68 
       0.251667         1585.07         1177.63 
       0.257832         1526.85          1135.7 
       0.263955         1475.15         1091.21 
       0.270079         1425.53         1043.47 
        0.27624         1408.56         993.745 
       0.282372         1351.22         945.261 
        0.28843          1346.9         900.797 
       0.294538         1281.31         861.077 
       0.300721         1271.69         826.462 
        0.30691         1227.44         796.615 
       0.313033         1203.76         770.316 
       0.319153         1182.93         745.533 
       0.325316         1146.25         720.745 
        0.33145         1121.93         695.552 
       0.337538         1102.13          670.06 
       0.343633         1079.61         644.614 
       0.349808         1044.29         619.693 
       0.355968          1036.2         596.448 
       0.362074         1027.34         575.351 
       0.368217         994.779         556.167 
       0.374374         960.458         538.632 
       0.380519         961.795         522.338 
       0.386598         934.672          506.92 
       0.392688         931.202         491.752 
        0.39888         904.389         476.466 
       0.405048         895.614         461.392 
       0.411186         883.361         446.691 
       0.417313         863.182         432.566 
       0.423458         849.419         419.142 
       0.429607          838.88         406.517 
       0.435692         822.757         394.846 
       0.441815         816.003         383.805 
       0.447964         798.691         373.255 
       0.454126           793.5         363.074 
       0.460267         773.241         353.221 
       0.466387         763.461         343.612 
        0.47254         760.511          334.16 
       0.478662         750.741         325.028 
       0.484765         730.216         316.253 
       0.490885         725.765         307.813 
       0.497035         710.117         299.708 
       0.503198         706.239         291.975 
       0.509342         698.469         284.615 
       0.515458         694.757         277.575 
       0.521598         677.462         270.737 
       0.527764           665.7         264.071 
       0.533884         663.645         257.645 
           0.54         656.976         251.409 
       0.546137          650.28          245.33 
       0.552299         642.933         239.419 
       0.558452         636.845         233.719 
       0.564573         629.458         228.258 
       0.570708         621.588         222.992 
       0.576825         605.547         217.928 
       0.582926         607.738         213.044 
       0.589034         602.157         208.301 
       0.595184         596.647         203.662 
       0.601379         588.547         199.124 
       0.607522         579.097         194.756 
       0.613639         578.908         190.535 
       0.619772         566.464          186.43 
       0.625918         563.147         182.441 
       0.632068         555.811         178.568 
       0.638161         553.092         174.845 
         0.6443          543.99         171.206 
       0.650464         541.899          167.66 
       0.656582         536.798         164.243 
       0.662703         534.765         160.922 
       0.668861         525.945         157.676 
       0.675024         521.382         154.517 
       0.681124         517.469         151.477 
       0.687237         513.452         148.511 
       0.693381         507.048         145.611 
       0.699536         497.617         142.783 
       0.705665          496.88         140.042 
       0.711789         494.493         137.376 
       0.717957         489.539         134.763 
        0.72409         486.898         132.233 
       0.730186         479.525         129.785 
       0.736317         475.846         127.386 
       0.742472         473.676          125.04 
       0.748622         468.279         122.756 
        0.75476          461.11         120.534 
       0.760888         457.211         118.372 
       0.767043         456.395         116.254 
       0.773185         451.914         114.193 
       0.779291         446.855         112.194 
       0.785407          443.87         110.241 
       0.791564         438.741         108.322 
       0.797719         437.055          106.45 
       0.803834         431.769         104.634 
       0.809972         429.575         102.855 
       0.816124         428.498         101.113 
       0.822261         422.504         99.4169 
       0.828378         420.544          97.765 
       0.834502         415.263         96.1496 
       0.840667         411.479         94.5605 
       0.846816         409.561         93.0121 
       0.852925         406.406         91.5084 
       0.859047         403.793         90.0351 
       0.865192         399.019         88.5896 
       0.871341         395.508         87.1752 
       0.877463         394.484         85.7983 
       0.883569           390.5         84.4549 
       0.889708         388.073         83.1336 
       0.895864         386.731         81.8374 
       0.902008         382.539         80.5717 
       0.908149         377.424         79.3338 
       0.914301         375.282           78.12 
       0.920448         373.304          76.933 
       0.926574         367.104          75.775 
       0.932687         366.771         74.6435 
       0.938823         363.485         73.5311 
       0.944975          362.18         72.4391 
       0.951105         357.976         71.3733 
       0.957225         355.783         70.3309 
       0.963368         351.743          69.306 
       0.969511         350.646         68.3016 
       0.975621         347.604         67.3226 
       0.981748         345.891         66.3604 
       0.987916         343.914         65.4111 
        0.99406         337.908          64.484 
        1.00019         336.174         63.5769 
        1.00632          334.48         62.6881 
        1.01246         331.631         61.8151 
        1.01859         331.457         60.9603 
        1.02471         326.323         60.1229 
        1.03085          325.41         59.2983 
        1.03698         323.168         58.4911 
        1.04314          319.84         57.6956 
        1.04929         316.369         56.9169 
        1.05541         316.991         56.1557 
        1.06154         311.612         55.4067 
        1.06769          310.34         54.6703 
        1.07382         307.917         53.9498 
        1.07993         305.976         53.2439 
        1.08607          304.59         52.5478 
        1.09222         301.741         51.8635 
        1.09836         299.494         51.1923 
        1.10449          297.11         50.5338 
        1.11063         293.243         49.8862 
        1.11677         293.459         49.2502 
         1.1229         291.009         48.6265 
        1.12903         288.419         48.0131 
        1.13518         285.801         47.4099 
        1.14131         284.052         46.8174 
        1.14745         282.281         46.2354 
        1.15359         280.314         45.6633 
        1.15973         278.945         45.1006 
        1.16584         275.842         44.5501 
        1.17197         275.908         44.0079 
        1.17811         271.924         43.4732 
        1.18424         270.234          42.949 
        1.19038         269.197         42.4319 
        1.19652         266.444         41.9236 
        1.20267         265.367         41.4236 
        1.20881         263.398          40.932 
        1.21495          261.02         40.4491 
        1.22108         259.282         39.9741 
         1.2272         257.508         39.5079 
        1.23334         255.888         39.0481 
        1.23949         253.483         38.5945 
        1.24562          252.55         38.1495 
        1.25174         250.387         37.7122 
        1.25789         248.254         37.2804 
        1.26402         246.304         36.8562 
        1.27014         244.583         36.4397 
        1.27628         242.957         36.0284 
        1.28244         242.821         35.6227 
        1.28858         240.017         35.2239 
        1.29471         238.605          34.832 
        1.30084         236.127         34.4465 
        1.30697         235.084         34.0663 
        1.31312         232.623         33.6914 
        1.31925         231.283         33.3232 
        1.32537         230.335          32.961 
        1.33151         228.507         32.6028 
        1.33765         225.959         32.2502 
        1.34378         224.993         31.9036 
        1.34992         223.806         31.5618 
        1.35606         222.607         31.2243 
         1.3622         220.641         30.8923 
        1.36833         218.863          30.566 
        1.37445         217.591         30.2446 
        1.38059         215.537         29.9268 
        1.38675         214.334         29.6128 
        1.39288         213.083         29.3047 
        1.39901         212.037          29.001 
        1.40515         210.215          28.701 
         1.4113         208.885         28.4054 
        1.41742         207.076         28.1151 
        1.42355         205.642         27.8283 
         1.4297         204.208         27.5446 
        1.43585         202.997         27.2651 
        1.44198         202.139         26.9905 
        1.44809         200.145         26.7202 
        1.45423         199.018         26.4526 
        1.46036          197.83         26.1892 
        1.46649         196.007         25.9294 
        1.47263         195.084         25.6728 
        1.47877         193.223         25.4198 
        1.48491         191.571         25.1699 
        1.49104         190.691         24.9238 
        1.49718         189.043         24.6809 
        1.50333         188.371         24.4408 
        1.50947         187.021         24.2045 
         1.5156         185.277         23.9716 
        1.52172         184.178         23.7417 
        1.52787         182.517         23.5145 
          1.534          182.19         23.2904 
        1.54013         180.445         23.0696 
        1.54627         179.478         22.8512 
        1.55241         177.815         22.6356 
        1.55855         176.207         22.4231 
        1.56467         175.458          22.214 
         1.5708         174.489         22.0069 
        1.57695         173.227         21.8021 
        1.58308         171.661         21.6005 
        1.58922         170.514         21.4012 
        1.59535         169.183         21.2046 
         1.6015         168.829         21.0102 
        1.60764         167.125         20.8183 
        1.61376         166.641         20.6293 
        1.61989         165.108         20.4425 
        1.62604         163.516         20.2577 
        1.63218         163.192         20.0752 
        1.63831         161.684         19.8955 
        1.64444         160.586         19.7178 
        1.65059          159.63         19.5419 
        1.65673         158.548         19.3684 
        1.66285         157.155         19.1975 
        1.66898         156.338         19.0285 
        1.67512          155.49         18.8613 
        1.68127         153.717          18.696 
         1.6874           153.1          18.533 
        1.69353          152.05          18.372 
        1.69967         150.742         18.2126 
        1.70581         149.961         18.0551 
        1.71193         148.963         17.9001 
        1.71806         148.161         17.7466 
        1.72421         146.825         17.5946 
        1.73035         146.159         17.4445 
        1.73649         145.207         17.2962 
        1.74262         144.203         17.1498 
        1.74876         143.122          17.005 
        1.75489          142.06         16.8621 
        1.76101         140.627          16.721 
        1.76715         140.253         16.5813 
        1.77329         139.109         16.4429 
        1.77943         138.473         16.3062 
        1.78557         137.467         16.1712 
        1.79171          136.68         16.0376 
        1.79785         135.396         15.9056 
        1.80399         134.535         15.7751 
        1.81012         133.799         15.6463 
        1.81625         133.211         15.5189 
        1.82239         132.101         15.3928 
        1.82853         131.406         15.2681 
        1.83466         130.405         15.1449 
        1.84078          129.84         15.0233 
        1.84692         128.204         14.9028 
        1.85306         127.798         14.7834 
         1.8592         126.829         14.6656 
        1.86533         126.279         14.5491 
        1.87147         125.238         14.4337 
        1.87761         124.206         14.3196 
        1.88375         123.357         14.2068 
        1.88988          122.42         14.0953 
        1.89601         121.896          13.985 
        1.90215         121.178         13.8758 
        1.90829         120.032         13.7678 
        1.91442          119.43         13.6609 
        1.92056         118.794         13.5553 
         1.9267         117.869         13.4507 
        1.93284         116.892         13.3471 
        1.93897         116.428         13.2448 
        1.94509          115.68         13.1438 
        1.95123         114.913         13.0436 
        1.95737         114.194         12.9444 
        1.96349         113.473         12.8465 
        1.96964         112.487         12.7493 
        1.97578         111.875         12.6531 
        1.98192         111.128          12.558 
        1.98805         110.324         12.4639 
        1.99419         109.637         12.3708 
        2.00033         109.112         12.2786 
        2.00647           108.4         12.1874 
         2.0126         107.593         12.0972 
        2.01874         106.904         12.0078 
        2.02488         106.299         11.9193 
        2.03101         105.362         11.8318 
        2.03714         104.799         11.7453 
        2.04328          103.99         11.6595 
        2.04941          103.45         11.5747 
        2.05554         102.539         11.4907 
        2.06167          102.13         11.4075 
        2.06781         101.366         11.3251 
        2.07396         100.803         11.2434 
        2.08009         100.215         11.1627 
        2.08622         99.5161         11.0828 
        2.09237          98.829         11.0036 
        2.09851         98.3801         10.9251 
        2.10464         97.7089         10.8476 
        2.11077         97.0703         10.7708 
        2.11691         96.6603         10.6947 
        2.12305         95.8365         10.6193 
        2.12918         95.2126         10.5448 
        2.13531         94.5835         10.4709 
        2.14145         93.9684         10.3977 
         2.1476         93.2606          10.325 
        2.15372         92.8884         10.2534 
        2.15985         92.3765         10.1824 
        2.16599          91.642         10.1119 
        2.17213         91.0664         10.0422 
        2.17827         90.5349         9.97306 
         2.1844         89.8046         9.90468 
        2.19054         89.3577         9.83691 
        2.19666         88.7404         9.76987 
         2.2028         88.2649          9.7034 
        2.20893          87.818         9.63752 
        2.21508         87.0709         9.57218 
        2.22122         86.4651         9.50742 
        2.22736         86.1247          9.4434 
        2.23349         85.6876         9.37998 
        2.23962         85.0472         9.31711 
        2.24577         84.5137         9.25477 
         2.2519          83.934         9.19308 
        2.25802         83.3831         9.13205 
        2.26417         83.1234         9.07142 
        2.27031         82.4063         9.01127 
        2.27644           81.98         8.95185 
        2.28257         81.3848         8.89297 
        2.28872         80.8922          8.8345 
        2.29486         80.4791         8.77658 
        2.30099         79.9258          8.7193 
        2.30712         79.5168          8.6625 
        2.31326         78.9096         8.60611 
         2.3194         78.4756         8.55026 
        2.32553         78.1864           8.495 
        2.33166         77.5214         8.44025 
         2.3378         77.1502         8.38591 
        2.34394         76.6291         8.33203 
        2.35007         76.1617          8.2787 
        2.35619         75.7493         8.22591 
        2.36233         75.3429         8.17345 
        2.36848         74.8764         8.12133 
        2.37462         74.5726         8.06979 
        2.38075         73.8398         8.01874 
        2.38689         73.6267         7.96809 
        2.39303         73.0737         7.91788 
        2.39916         72.6601         7.86816 
        2.40529         72.3929         7.81887 
        2.41143         71.9689         7.76997 
        2.41757          71.464         7.72146 
         2.4237         71.1734         7.67346 
        2.42983         70.6794         7.62587 
        2.43598         70.2148         7.57855 
        2.44211         69.9727         7.53172 
        2.44823         69.5527         7.48539 
        2.45437         69.0653         7.43932 
        2.46052         68.6478          7.3936 
        2.46665         68.4543         7.34834 
        2.47279         67.8391         7.30348 
        2.47892         67.5862         7.25897 
        2.48507         67.1892         7.21478 
         2.4912         66.7749         7.17105 
