# k  (h/Mpc)    Pcb(k)  (Mpc/h)^3    Pcb_linear(k)  (Mpc/h)^3
     0.00783031         314.757         316.244 
       0.013688         387.098         389.359 
       0.019231         391.518         392.482 
      0.0249154         360.278         360.918 
      0.0312784         311.051         310.679 
      0.0375637         264.072         263.455 
      0.0433917          229.34         229.048 
      0.0492413         205.393         204.494 
      0.0555754         186.407         186.551 
      0.0619321         174.313         173.353 
       0.067871         161.844         161.862 
      0.0738098         149.239         149.168 
      0.0800417         134.338         134.206 
      0.0862327          119.24         118.777 
      0.0921407         105.584         105.079 
      0.0982031         93.6802         93.3328 
       0.104506         84.9568         84.1797 
       0.110769         78.7169         77.9268 
       0.116806         74.2496         73.7961 
       0.122832         71.1716         70.5476 
       0.129052         67.5396         67.1853 
       0.135211         63.6603         63.2747 
       0.141259         59.3266         58.7859 
       0.147318         54.6691         53.9496 
       0.153489         49.7915         49.1714 
       0.159709         45.5727         44.9697 
       0.165845         42.5644         41.6784 
       0.171974         39.8004         39.2431 
       0.178125         38.1075         37.4631 
       0.184229         36.7657         36.0614 
        0.19034         35.2113         34.7263 
       0.196428         33.9005         33.2535 
       0.202534         32.3206         31.5553 
       0.208729         30.3168         29.6608 
       0.214876         28.3344         27.7509 
       0.220989         26.6849         25.9774 
       0.227147         24.9996         24.4333 
        0.23329         23.7482          23.179 
       0.239377         22.7891         22.1908 
       0.245482         21.8752         21.3782 
       0.251667         21.2705         20.6411 
       0.257832         20.5069         19.9062 
       0.263955         19.7225         19.1264 
       0.270079         18.9076         18.2897 
        0.27624         18.0967         17.4182 
       0.282372         17.2244         16.5684 
        0.28843         16.4101          15.789 
       0.294538         15.7236         15.0928 
       0.300721         15.1501         14.4861 
        0.30691         14.5326          13.963 
       0.313033         14.0819         13.5021 
       0.319153         13.5521         13.0676 
       0.325316         13.2309         12.6332 
        0.33145         12.7848         12.1916 
       0.337538         12.3158         11.7448 
       0.343633         11.8344         11.2988 
       0.349808         11.4326          10.862 
       0.355968         11.0176         10.4545 
       0.362074         10.6437         10.0848 
       0.368217         10.2988         9.74851 
       0.374374          9.9578         9.44117 
       0.380519         9.69252         9.15556 
       0.386598         9.43598         8.88534 
       0.392688         9.17256         8.61947 
        0.39888         8.89718         8.35152 
       0.405048         8.62611         8.08734 
       0.411186         8.37537         7.82963 
       0.417313          8.0952         7.58208 
       0.423458         7.86881         7.34676 
       0.429607         7.62589          7.1255 
       0.435692         7.41494         6.92089 
       0.441815         7.22031         6.72739 
       0.447964         7.06361         6.54245 
       0.454126         6.84146         6.36402 
       0.460267         6.67041         6.19132 
       0.466387         6.47869         6.02289 
        0.47254         6.32924         5.85721 
       0.478662         6.17792         5.69715 
       0.484765         5.99632         5.54333 
       0.490885         5.84927         5.39539 
       0.497035         5.73396         5.25334 
       0.503198         5.58149         5.11778 
       0.509342         5.44716         4.98879 
       0.515458         5.31507         4.86539 
       0.521598         5.19089         4.74553 
       0.527764          5.0554         4.62869 
       0.533884         4.96149         4.51606 
           0.54         4.84074         4.40674 
       0.546137         4.73804          4.3002 
       0.552299         4.63262         4.19658 
       0.558452         4.50466         4.09668 
       0.564573         4.41859         4.00097 
       0.570708         4.32636         3.90864 
       0.576825         4.22049          3.8199 
       0.582926         4.14585         3.73429 
       0.589034            4.03         3.65115 
       0.595184         3.95551         3.56984 
       0.601379         3.87009         3.49029 
       0.607522         3.80306         3.41373 
       0.613639         3.73768         3.33975 
       0.619772         3.63882          3.2678 
       0.625918         3.58108         3.19786 
       0.632068         3.51847         3.12999 
       0.638161           3.439         3.06473 
         0.6443         3.36917         3.00094 
       0.650464         3.29384         2.93878 
       0.656582         3.24286         2.87889 
       0.662703         3.18281         2.82069 
       0.668861         3.12895         2.76379 
       0.675024         3.06271         2.70842 
       0.681124         3.00159         2.65512 
       0.687237          2.9549         2.60314 
       0.693381         2.90154          2.5523 
       0.699536         2.82903         2.50273 
       0.705665         2.78257         2.45469 
       0.711789         2.74097         2.40797 
       0.717957         2.68662         2.36216 
        0.72409          2.6406         2.31782 
       0.730186         2.59443          2.2749 
       0.736317         2.56105         2.23286 
       0.742472          2.5171         2.19173 
       0.748622          2.4684          2.1517 
        0.75476         2.41682         2.11276 
       0.760888         2.38196         2.07486 
       0.767043         2.35402         2.03774 
       0.773185         2.30306         2.00162 
       0.779291         2.27007         1.96658 
       0.785407          2.2321         1.93233 
       0.791564         2.19823         1.89869 
       0.797719         2.16538         1.86588 
       0.803834          2.1342         1.83406 
       0.809972         2.09855         1.80287 
       0.816124         2.06074         1.77234 
       0.822261         2.02483         1.74261 
       0.828378         1.99741         1.71366 
       0.834502         1.97433         1.68534 
       0.840667         1.93326         1.65749 
       0.846816         1.90389         1.63034 
       0.852925         1.88256         1.60399 
       0.859047         1.85726         1.57816 
       0.865192          1.8269         1.55283 
       0.871341         1.80003         1.52803 
       0.877463         1.77952          1.5039 
       0.883569          1.7449         1.48035 
       0.889708         1.72085         1.45719 
       0.895864         1.69728         1.43447 
       0.902008         1.66981         1.41229 
       0.908149         1.64951         1.39059 
       0.914301         1.61668         1.36931 
       0.920448         1.59884         1.34851 
       0.926574         1.57319         1.32821 
       0.932687         1.55149         1.30837 
       0.938823         1.53752         1.28888 
       0.944975         1.51635         1.26974 
       0.951105         1.49463         1.25105 
       0.957225         1.48168         1.23278 
       0.963368         1.45766         1.21482 
       0.969511         1.43549         1.19721 
       0.975621         1.41382         1.18005 
       0.981748         1.40152         1.16319 
       0.987916         1.38183         1.14655 
        0.99406         1.35952          1.1303 
        1.00019         1.34803          1.1144 
        1.00632         1.32521         1.09882 
        1.01246          1.3078         1.08352 
        1.01859         1.29541         1.06853 
        1.02471         1.27727         1.05385 
        1.03085         1.26489          1.0394 
        1.03698         1.24498         1.02525 
        1.04314         1.23108         1.01131 
        1.04929         1.21519        0.997659 
        1.05541         1.20248        0.984317 
        1.06154         1.18629        0.971188 
        1.06769         1.17181         0.95828 
        1.07382         1.15871         0.94565 
        1.07993         1.14129        0.933278 
        1.08607         1.13341        0.921076 
        1.09222          1.1162        0.909082 
        1.09836         1.10779        0.897316 
        1.10449         1.09507        0.885774 
        1.11063         1.07727        0.874422 
        1.11677         1.06468        0.863275 
         1.1229         1.05151        0.852343 
        1.12903         1.04042        0.841591 
        1.13518         1.03131        0.831017 
        1.14131         1.01671        0.820632 
        1.14745         1.00023        0.810431 
        1.15359        0.994857        0.800402 
        1.15973        0.979884         0.79054 
        1.16584        0.974375        0.780889 
        1.17197        0.961737        0.771387 
        1.17811        0.952936        0.762014 
        1.18424        0.945723        0.752825 
        1.19038         0.93135        0.743762 
        1.19652        0.920271        0.734852 
        1.20267        0.913755        0.726088 
        1.20881        0.901502         0.71747 
        1.21495        0.893832        0.709006 
        1.22108        0.884322        0.700681 
         1.2272        0.876413        0.692509 
        1.23334        0.866257        0.684449 
        1.23949        0.856275        0.676499 
        1.24562         0.84965        0.668699 
        1.25174        0.840309        0.661033 
        1.25789        0.833434        0.653465 
        1.26402        0.822147         0.64603 
        1.27014         0.81437        0.638729 
        1.27628        0.809574         0.63152 
        1.28244        0.796991        0.624409 
        1.28858        0.790468        0.617417 
        1.29471        0.785391        0.610549 
        1.30084        0.775477        0.603792 
        1.30697        0.768539        0.597128 
        1.31312        0.757361        0.590555 
        1.31925        0.752526        0.584102 
        1.32537        0.747128        0.577752 
        1.33151        0.740358        0.571475 
        1.33765        0.733802        0.565294 
        1.34378        0.725064        0.559218 
        1.34992        0.720145        0.553227 
        1.35606        0.712303        0.547311 
         1.3622         0.70692        0.541492 
        1.36833        0.699917        0.535773 
        1.37445        0.691507        0.530138 
        1.38059        0.686405        0.524568 
        1.38675        0.684456        0.519065 
        1.39288        0.676389        0.513663 
        1.39901        0.670208        0.508341 
        1.40515        0.665602        0.503082 
         1.4113        0.658209          0.4979 
        1.41742        0.653081        0.492812 
        1.42355        0.649528        0.487785 
         1.4297        0.642092        0.482813 
        1.43585        0.637542        0.477913 
        1.44198        0.634828          0.4731 
        1.44809        0.627893        0.468362 
        1.45423        0.622171        0.463672 
        1.46036        0.617098        0.459055 
        1.46649         0.61338          0.4545 
        1.47263        0.607493        0.450003 
        1.47877        0.603743        0.445569 
        1.48491        0.598772        0.441188 
        1.49104        0.593192        0.436875 
        1.49718        0.589919        0.432617 
        1.50333        0.586144        0.428409 
        1.50947        0.580815        0.424265 
         1.5156        0.577068        0.420183 
        1.52172         0.57337        0.416154 
        1.52787         0.56851        0.412171 
          1.534         0.56482        0.408244 
        1.54013         0.56036        0.404373 
        1.54627         0.55706        0.400545 
        1.55241        0.552871        0.396766 
        1.55855        0.548044        0.393042 
        1.56467        0.546835        0.389375 
         1.5708        0.541233        0.385745 
        1.57695        0.537215        0.382157 
        1.58308        0.534045        0.378622 
        1.58922        0.530112        0.375129 
        1.59535        0.526586        0.371683 
         1.6015        0.523133        0.368275 
        1.60764        0.520013        0.364911 
        1.61376        0.515747        0.361599 
        1.61989        0.514158        0.358325 
        1.62604        0.512726        0.355085 
        1.63218        0.508895        0.351887 
        1.63831        0.505495        0.348736 
        1.64444        0.503376        0.345622 
        1.65059        0.500345        0.342539 
        1.65673        0.497763        0.339497 
        1.66285         0.49748        0.336501 
        1.66898        0.495277         0.33354 
        1.67512        0.492755        0.330609 
        1.68127        0.490653        0.327711 
         1.6874         0.49012        0.324853 
        1.69353        0.487109        0.322032 
        1.69967        0.488008        0.319237 
        1.70581        0.485046        0.316477 
        1.71193        0.483767         0.31376 
        1.71806        0.482652         0.31107 
        1.72421        0.481922        0.308405 
        1.73035        0.481771        0.305775 
        1.73649        0.481542        0.303176 
        1.74262        0.481034        0.300609 
        1.74876        0.480551        0.298071 
        1.75489        0.480419        0.295567 
        1.76101         0.47938        0.293093 
        1.76715        0.479386        0.290643 
        1.77329        0.480917        0.288219 
        1.77943        0.478684        0.285821 
        1.78557        0.480813        0.283455 
        1.79171         0.48178        0.281115 
        1.79785        0.482676          0.2788 
        1.80399        0.483097        0.276513 
        1.81012          0.4852        0.274254 
        1.81625        0.485982        0.272022 
        1.82239        0.488084        0.269811 
        1.82853        0.489055        0.267626 
        1.83466        0.489981        0.265467 
        1.84078        0.491626        0.263335 
        1.84692        0.492487        0.261222 
        1.85306         0.49629         0.25913 
         1.8592        0.497294        0.257065 
        1.86533        0.501157        0.255023 
        1.87147        0.504489        0.253001 
        1.87761        0.507357           0.251 
        1.88375        0.508734        0.249023 
        1.88988        0.511206        0.247069 
        1.89601        0.516065        0.245136 
        1.90215        0.518137        0.243221 
        1.90829        0.521931        0.241328 
        1.91442        0.526499        0.239455 
        1.92056        0.530586        0.237604 
         1.9267        0.533556         0.23577 
        1.93284        0.536258        0.233954 
        1.93897        0.541088        0.232161 
        1.94509        0.548923        0.230391 
        1.95123         0.55055        0.228635 
        1.95737        0.556138        0.226896 
        1.96349        0.565446        0.225179 
        1.96964        0.568257        0.223475 
        1.97578        0.572587        0.221788 
        1.98192        0.581185        0.220122 
        1.98805        0.587064        0.218473 
        1.99419        0.589398        0.216841 
        2.00033        0.598663        0.215225 
        2.00647         0.60565        0.213626 
         2.0126        0.611389        0.212045 
        2.01874        0.619243        0.210479 
        2.02488        0.623664        0.208927 
        2.03101        0.633716        0.207393 
        2.03714        0.642484        0.205876 
        2.04328        0.651661        0.204373 
        2.04941        0.658536        0.202886 
        2.05554        0.667299        0.201415 
        2.06167        0.675734        0.199956 
        2.06781         0.68776        0.198512 
        2.07396        0.694115         0.19708 
        2.08009        0.701611        0.195665 
        2.08622        0.715766        0.194265 
        2.09237        0.722802        0.192876 
        2.09851         0.73561        0.191501 
        2.10464        0.745629        0.190141 
        2.11077        0.755855        0.188796 
        2.11691        0.770443        0.187461 
        2.12305        0.780885        0.186139 
        2.12918        0.792973        0.184833 
        2.13531        0.809944         0.18354 
        2.14145        0.816638        0.182255 
         2.1476        0.832643        0.180982 
        2.15372        0.848301        0.179727 
        2.15985        0.855215        0.178483 
        2.16599        0.872437        0.177247 
        2.17213        0.889965        0.176024 
        2.17827         0.90237        0.174812 
         2.1844        0.922327        0.173614 
        2.19054        0.938076        0.172426 
        2.19666        0.953358        0.171251 
         2.2028        0.967973        0.170086 
        2.20893        0.984021        0.168931 
        2.21508        0.999659        0.167786 
        2.22122         1.02636        0.166651 
        2.22736         1.04158        0.165528 
        2.23349         1.05356        0.164417 
        2.23962         1.07775        0.163315 
        2.24577         1.10083        0.162222 
         2.2519          1.1224        0.161141 
        2.25802         1.13959        0.160071 
        2.26417         1.16435        0.159008 
        2.27031         1.18728        0.157954 
        2.27644         1.20344        0.156912 
        2.28257         1.22943         0.15588 
        2.28872         1.25573        0.154855 
        2.29486         1.27972         0.15384 
        2.30099         1.30704        0.152836 
        2.30712         1.33124         0.15184 
        2.31326         1.36478        0.150852 
         2.3194         1.39058        0.149873 
        2.32553          1.4129        0.148904 
        2.33166         1.44243        0.147945 
         2.3378         1.47534        0.146992 
        2.34394         1.50959        0.146048 
        2.35007         1.53017        0.145113 
        2.35619         1.56897        0.144188 
        2.36233         1.60153        0.143268 
        2.36848         1.63951        0.142355 
        2.37462         1.66807        0.141451 
        2.38075         1.71162        0.140556 
        2.38689         1.74814        0.139669 
        2.39303         1.77988        0.138789 
        2.39916         1.81488        0.137917 
        2.40529         1.86925        0.137053 
        2.41143         1.89501        0.136196 
        2.41757         1.94549        0.135346 
         2.4237         1.99192        0.134504 
        2.42983         2.02579         0.13367 
        2.43598         2.07129        0.132841 
        2.44211         2.11521         0.13202 
        2.44823         2.16811        0.131208 
        2.45437         2.22039          0.1304 
        2.46052         2.27479        0.129599 
        2.46665         2.33061        0.128805 
        2.47279         2.36554        0.128019 
        2.47892          2.4311        0.127239 
        2.48507         2.48624        0.126464 
         2.4912         2.54101        0.125698 
