# k  (h/Mpc)    Pcb(k)  (Mpc/h)^3    Pcb_linear(k)  (Mpc/h)^3
     0.00783031         16881.1         17027.7 
       0.013688         21041.4         20922.5 
       0.019231         21032.5         21067.7 
      0.0249154         18956.3         19361.1 
      0.0312784           16450         16658.1 
      0.0375637         14063.3         14121.6 
      0.0433917         12001.1         12274.9 
      0.0492413           10855         10957.4 
      0.0555754         9614.36         9994.71 
      0.0619321         9258.18         9286.78 
       0.067871         8360.67         8670.59 
      0.0738098         7713.72         7990.18 
      0.0800417         6871.92         7188.41 
      0.0862327         6197.14         6361.77 
      0.0921407         5602.31          5627.9 
      0.0982031         4963.58         4998.67 
       0.104506         4651.25         4508.36 
       0.110769         4312.94          4173.4 
       0.116806         4064.16         3952.12 
       0.122832         3872.71          3778.1 
       0.129052         3606.45         3597.99 
       0.135211          3422.5         3388.53 
       0.141259         3264.24         3148.12 
       0.147318         3064.32          2889.1 
       0.153489         2794.45          2633.2 
       0.159709          2628.4         2408.17 
       0.165845          2529.1         2231.91 
       0.171974         2390.25         2101.49 
       0.178125         2279.23         2006.16 
       0.184229          2189.4         1931.09 
        0.19034         2077.47         1859.59 
       0.196428         2034.05         1780.71 
       0.202534         1954.17         1689.77 
       0.208729          1866.6         1588.32 
       0.214876         1786.92         1486.04 
       0.220989         1725.37         1391.06 
       0.227147         1654.41         1308.37 
        0.23329         1586.69         1241.21 
       0.239377         1562.71         1188.29 
       0.245482          1466.8         1144.77 
       0.251667          1462.4          1105.3 
       0.257832         1408.96         1065.94 
       0.263955         1361.27         1024.19 
       0.270079         1314.68          979.38 
        0.27624         1299.64         932.711 
       0.282372          1245.9         887.206 
        0.28843         1239.21         845.473 
       0.294538         1177.94         808.191 
       0.300721         1169.94         775.701 
        0.30691         1127.12          747.69 
       0.313033         1106.01         723.006 
       0.319153         1084.55         699.742 
       0.325316          1051.2         676.478 
        0.33145         1028.01         652.835 
       0.337538         1011.13         628.907 
       0.343633         988.451         605.024 
       0.349808           955.4         581.635 
       0.355968         948.488         559.816 
       0.362074         939.268         540.015 
       0.368217         910.248         522.009 
       0.374374         877.094         505.552 
       0.380519         877.897         490.257 
       0.386598         853.775         475.788 
       0.392688         850.882         461.551 
        0.39888          825.77         447.203 
       0.405048           816.6         433.056 
       0.411186           805.4         419.256 
       0.417313         787.073         406.001 
       0.423458         774.646           393.4 
       0.429607         764.185         381.552 
       0.435692         748.695         370.595 
       0.441815         742.892         360.234 
       0.447964         726.928         350.331 
       0.454126         720.554         340.776 
       0.460267         703.063         331.528 
       0.466387         694.602         322.509 
        0.47254         689.393         313.638 
       0.478662         682.311         305.067 
       0.484765         662.604          296.83 
       0.490885         658.444         288.908 
       0.497035         644.411         281.302 
       0.503198         640.472         274.043 
       0.509342         633.977         267.135 
       0.515458         629.824         260.528 
       0.521598         614.129          254.11 
       0.527764         603.302         247.853 
       0.533884          601.52         241.822 
           0.54         594.451         235.968 
       0.546137         589.849         230.263 
       0.552299         581.904         224.715 
       0.558452         577.144         219.365 
       0.564573         570.018          214.24 
       0.570708         562.686         209.296 
       0.576825         547.783         204.544 
       0.582926         549.287          199.96 
       0.589034         544.715         195.508 
       0.595184         539.677         191.154 
       0.601379         531.989         186.895 
       0.607522         523.654         182.795 
       0.613639          523.44         178.834 
       0.619772         511.484         174.981 
       0.625918         509.066         171.236 
       0.632068         502.054         167.601 
       0.638161         499.734         164.107 
         0.6443         491.226         160.691 
       0.650464         488.845         157.363 
       0.656582         484.847         154.156 
       0.662703         482.822         151.039 
       0.668861         474.613         147.993 
       0.675024         470.662         145.028 
       0.681124         466.989         142.174 
       0.687237         463.029          139.39 
       0.693381         457.194         136.668 
       0.699536         449.354         134.014 
       0.705665         448.204         131.441 
       0.711789         446.002         128.939 
       0.717957          441.55         126.486 
        0.72409         438.941         124.112 
       0.730186         432.564         121.814 
       0.736317         428.887         119.563 
       0.742472         427.118         117.361 
       0.748622         422.263         115.217 
        0.75476         416.163         113.132 
       0.760888         412.162         111.102 
       0.767043         411.784         109.115 
       0.773185         407.498          107.18 
       0.779291         402.467         105.304 
       0.785407         400.588          103.47 
       0.791564         395.378         101.669 
       0.797719         393.459         99.9122 
       0.803834         389.288         98.2081 
       0.809972         387.285          96.538 
       0.816124          386.51         94.9034 
       0.822261         381.039         93.3114 
       0.828378         379.106         91.7609 
       0.834502         374.539         90.2447 
       0.840667          371.11         88.7532 
       0.846816         369.233         87.2999 
       0.852925         366.515         85.8885 
       0.859047         363.862         84.5057 
       0.865192         359.761          83.149 
       0.871341         356.607         81.8215 
       0.877463         355.485         80.5292 
       0.883569         352.269         79.2683 
       0.889708         349.669         78.0281 
       0.895864         348.007         76.8115 
       0.902008         344.397         75.6235 
       0.908149         340.454         74.4616 
       0.914301         338.037         73.3224 
       0.920448         335.857         72.2083 
       0.926574         330.861         71.1214 
       0.932687         331.013         70.0594 
       0.938823         327.493         69.0153 
       0.944975          326.27         67.9904 
       0.951105         322.569         66.9901 
       0.957225         320.838         66.0117 
       0.963368         317.097         65.0497 
       0.969511         316.042          64.107 
       0.975621         312.819         63.1881 
       0.981748         311.972          62.285 
       0.987916         309.994          61.394 
        0.99406         304.584         60.5238 
        1.00019         303.234         59.6724 
        1.00632         301.701         58.8382 
        1.01246          299.09         58.0189 
        1.01859         299.261         57.2166 
        1.02471         294.432         56.4305 
        1.03085         293.244         55.6567 
        1.03698          291.65          54.899 
        1.04314         288.171         54.1524 
        1.04929         285.645         53.4215 
        1.05541         285.946         52.7071 
        1.06154         281.093          52.004 
        1.06769         280.216         51.3129 
        1.07382         278.209         50.6366 
        1.07993         276.131          49.974 
        1.08607         274.965         49.3207 
        1.09222         272.712         48.6784 
        1.09836         270.621         48.0484 
        1.10449         267.975         47.4304 
        1.11063         265.011         46.8225 
        1.11677         264.818         46.2256 
         1.1229         262.861         45.6402 
        1.12903         260.569         45.0645 
        1.13518         258.429         44.4983 
        1.14131         256.651         43.9422 
        1.14745          255.36          43.396 
        1.15359         253.368          42.859 
        1.15973         252.031         42.3309 
        1.16584          249.31         41.8141 
        1.17197         249.613         41.3053 
        1.17811         245.756         40.8034 
        1.18424         244.504         40.3114 
        1.19038         243.594         39.8261 
        1.19652          241.12          39.349 
        1.20267         240.175         38.8797 
        1.20881         238.424         38.4182 
        1.21495         236.341          37.965 
        1.22108         234.908         37.5192 
         1.2272         233.154         37.0816 
        1.23334         231.597         36.6501 
        1.23949         229.783         36.2244 
        1.24562         228.954         35.8067 
        1.25174         226.742         35.3962 
        1.25789         225.048          34.991 
        1.26402         222.997         34.5928 
        1.27014         221.631         34.2019 
        1.27628         220.403         33.8159 
        1.28244           220.1         33.4351 
        1.28858         217.503         33.0607 
        1.29471         215.942         32.6929 
        1.30084         214.339         32.3311 
        1.30697         213.002         31.9743 
        1.31312         210.946         31.6223 
        1.31925          209.91         31.2768 
        1.32537         208.882         30.9368 
        1.33151         207.292         30.6006 
        1.33765         205.188         30.2697 
        1.34378         204.234         29.9443 
        1.34992         203.039         29.6235 
        1.35606         202.283         29.3068 
         1.3622         200.527         28.9952 
        1.36833         198.709         28.6889 
        1.37445         197.874         28.3872 
        1.38059         195.695         28.0889 
        1.38675         194.806         27.7943 
        1.39288         193.639          27.505 
        1.39901         192.935           27.22 
        1.40515         190.888         26.9384 
         1.4113         189.778          26.661 
        1.41742         188.136         26.3885 
        1.42355         186.891         26.1193 
         1.4297          185.47         25.8531 
        1.43585         184.732         25.5907 
        1.44198         183.637          25.333 
        1.44809         182.265         25.0793 
        1.45423         181.241         24.8282 
        1.46036         180.146         24.5809 
        1.46649         178.341          24.337 
        1.47263         177.463         24.0962 
        1.47877         175.887         23.8588 
        1.48491         174.441         23.6242 
        1.49104         173.917         23.3932 
        1.49718          172.09         23.1652 
        1.50333          171.47         22.9399 
        1.50947         170.405          22.718 
         1.5156         168.881         22.4994 
        1.52172         167.771         22.2837 
        1.52787         166.267         22.0704 
          1.534         166.035         21.8602 
        1.54013         164.576         21.6529 
        1.54627         163.569         21.4479 
        1.55241         162.027         21.2455 
        1.55855         160.824         21.0461 
        1.56467         159.894         20.8498 
         1.5708         159.171         20.6554 
        1.57695         157.965         20.4632 
        1.58308         156.758          20.274 
        1.58922         155.953          20.087 
        1.59535         154.444         19.9024 
         1.6015          154.36         19.7199 
        1.60764         152.611         19.5398 
        1.61376         152.091         19.3624 
        1.61989         150.779         19.1871 
        1.62604         149.518         19.0136 
        1.63218         149.139         18.8424 
        1.63831          147.78         18.6737 
        1.64444         146.889         18.5069 
        1.65059         145.854         18.3419 
        1.65673         144.917          18.179 
        1.66285         143.805         18.0185 
        1.66898         142.903           17.86 
        1.67512         142.285          17.703 
        1.68127         140.821         17.5478 
         1.6874         140.069         17.3948 
        1.69353         139.168         17.2438 
        1.69967         137.996         17.0941 
        1.70581         137.368         16.9463 
        1.71193         136.449         16.8009 
        1.71806         135.757         16.6568 
        1.72421         134.554         16.5141 
        1.73035         134.018         16.3732 
        1.73649         133.129         16.2341 
        1.74262         132.195         16.0967 
        1.74876          131.39         15.9607 
        1.75489         130.217         15.8266 
        1.76101         129.049         15.6942 
        1.76715         128.778          15.563 
        1.77329          127.83         15.4332 
        1.77943         127.024         15.3048 
        1.78557         126.257         15.1781 
        1.79171         125.531         15.0528 
        1.79785         124.464         14.9289 
        1.80399         123.593         14.8064 
        1.81012         122.948         14.6854 
        1.81625         122.483         14.5659 
        1.82239         121.568         14.4475 
        1.82853         120.657         14.3305 
        1.83466          119.97         14.2149 
        1.84078         119.354         14.1007 
        1.84692         117.951         13.9876 
        1.85306         117.633         13.8756 
         1.8592         116.711          13.765 
        1.86533         116.097         13.6556 
        1.87147         115.202         13.5474 
        1.87761           114.3         13.4402 
        1.88375         113.557         13.3344 
        1.88988         112.857         13.2298 
        1.89601         112.161         13.1262 
        1.90215         111.578         13.0237 
        1.90829         110.685         12.9223 
        1.91442         110.089          12.822 
        1.92056         109.383         12.7229 
         1.9267         108.792         12.6247 
        1.93284         107.796         12.5275 
        1.93897         107.304         12.4315 
        1.94509         106.715         12.3367 
        1.95123         105.961         12.2426 
        1.95737         105.473         12.1495 
        1.96349         104.638         12.0576 
        1.96964         103.829         11.9664 
        1.97578         103.335          11.876 
        1.98192         102.647         11.7868 
        1.98805         101.923         11.6985 
        1.99419         101.262         11.6111 
        2.00033         100.753         11.5246 
        2.00647         100.213          11.439 
         2.0126         99.2631         11.3543 
        2.01874         98.7304         11.2705 
        2.02488         98.1636         11.1873 
        2.03101         97.4266         11.1052 
        2.03714         96.8725          11.024 
        2.04328         96.1725         10.9435 
        2.04941          95.643         10.8639 
        2.05554          94.891         10.7851 
        2.06167         94.5341          10.707 
        2.06781         93.8317         10.6297 
        2.07396         93.3488          10.553 
        2.08009         92.8146         10.4772 
        2.08622         92.0977         10.4023 
        2.09237          91.516         10.3279 
        2.09851         91.0407         10.2543 
        2.10464         90.3934         10.1814 
        2.11077         89.8947         10.1094 
        2.11691         89.5476         10.0379 
        2.12305         88.7002         9.96716 
        2.12918         88.1428         9.89722 
        2.13531         87.5883         9.82795 
        2.14145         87.0516         9.75918 
         2.1476         86.3671         9.69099 
        2.15372         85.9871         9.62379 
        2.15985         85.5237         9.55717 
        2.16599         84.9318         9.49098 
        2.17213         84.3711         9.42549 
        2.17827         83.9178         9.36064 
         2.1844         83.1985         9.29645 
        2.19054         82.8493         9.23285 
        2.19666         82.4373         9.16993 
         2.2028         81.8588         9.10754 
        2.20893         81.4068         9.04571 
        2.21508         80.8688         8.98438 
        2.22122         80.2683         8.92359 
        2.22736         79.9015          8.8635 
        2.23349         79.6037         8.80398 
        2.23962         78.9806         8.74497 
        2.24577         78.5134         8.68646 
         2.2519         78.0177         8.62856 
        2.25802         77.3922         8.57128 
        2.26417         77.1475         8.51437 
        2.27031          76.457         8.45792 
        2.27644         76.1069         8.40214 
        2.28257         75.5498         8.34688 
        2.28872         75.2511         8.29201 
        2.29486         74.8465         8.23764 
        2.30099         74.3347         8.18387 
        2.30712         73.9198         8.13056 
        2.31326         73.4553         8.07764 
         2.3194          72.984         8.02522 
        2.32553         72.6227         7.97335 
        2.33166         72.1902         7.92196 
         2.3378         71.6791         7.87096 
        2.34394         71.2586         7.82039 
        2.35007         70.8709         7.77034 
        2.35619         70.5267         7.72078 
        2.36233         70.0849         7.67154 
        2.36848         69.7139         7.62263 
        2.37462         69.3621         7.57425 
        2.38075         68.7436         7.52634 
        2.38689         68.5352          7.4788 
        2.39303         68.0134         7.43167 
        2.39916         67.7047         7.38501 
        2.40529         67.3785         7.33874 
        2.41143         66.9252         7.29284 
        2.41757          66.623         7.24732 
         2.4237         66.3516         7.20226 
        2.42983         65.9114         7.15759 
        2.43598         65.4043         7.11318 
        2.44211         65.2243         7.06923 
        2.44823         64.8663         7.02574 
        2.45437         64.2783          6.9825 
        2.46052         63.9817         6.93959 
        2.46665         63.7132         6.89711 
        2.47279         63.2094         6.85501 
        2.47892         62.9858         6.81322 
        2.48507         62.6029         6.77175 
         2.4912          62.243         6.73071 
