# k  (h/Mpc)    Pcb(k)  (Mpc/h)^3    Pcb_linear(k)  (Mpc/h)^3
     0.00783031         12519.1         12614.8 
       0.013688         15563.1         15502.6 
       0.019231         15589.2         15611.6 
      0.0249154         14104.3         14347.9 
      0.0312784         12232.6         12345.4 
      0.0375637         10443.7           10466 
      0.0433917         8939.65         9097.55 
      0.0492413         8074.29         8121.24 
      0.0555754         7181.74         7407.87 
      0.0619321         6888.78         6883.25 
       0.067871         6248.39          6426.6 
      0.0738098         5763.01         5922.33 
      0.0800417         5142.89         5328.09 
      0.0862327         4625.49         4715.41 
      0.0921407         4162.79         4171.47 
      0.0982031         3683.64         3705.09 
       0.104506         3436.18         3341.67 
       0.110769         3185.27         3093.41 
       0.116806         2995.07          2929.4 
       0.122832         2862.02         2800.41 
       0.129052         2671.78         2666.92 
       0.135211         2534.32         2511.67 
       0.141259         2407.19         2333.47 
       0.147318         2251.28         2141.48 
       0.153489         2050.39          1951.8 
       0.159709         1921.86         1785.01 
       0.165845         1838.99         1654.36 
       0.171974         1731.76         1557.69 
       0.178125         1654.03         1487.03 
       0.184229         1594.06         1431.38 
        0.19034         1502.96         1378.39 
       0.196428         1474.62         1319.92 
       0.202534          1419.7         1252.51 
       0.208729         1349.58         1177.31 
       0.214876         1281.89          1101.5 
       0.220989         1236.34          1031.1 
       0.227147         1178.24         969.812 
        0.23329         1128.93         920.028 
       0.239377          1108.1         880.801 
       0.245482         1037.02         848.546 
       0.251667         1032.76         819.288 
       0.257832         997.058         790.116 
       0.263955         962.963         759.164 
       0.270079         928.411         725.952 
        0.27624         917.808         691.359 
       0.282372         878.644         657.629 
        0.28843         865.635         626.695 
       0.294538         822.057         599.061 
       0.300721         817.006         574.978 
        0.30691         782.782         554.215 
       0.313033         769.038         535.919 
       0.319153         748.529         518.675 
       0.325316         726.525          501.43 
        0.33145         707.721         483.905 
       0.337538         698.827         466.169 
       0.343633         678.558         448.466 
       0.349808         655.345          431.13 
       0.355968         650.881         414.956 
       0.362074         640.793         400.279 
       0.368217         623.093         386.933 
       0.374374         597.907         374.734 
       0.380519         596.119         363.397 
       0.386598         581.154         352.672 
       0.392688          578.75         342.119 
        0.39888         561.404         331.484 
       0.405048         552.254         320.998 
       0.411186         543.393         310.769 
       0.417313         531.792         300.943 
       0.423458         523.805         291.603 
       0.429607          514.32         282.821 
       0.435692         502.395         274.699 
       0.441815         498.982         267.019 
       0.447964         488.386         259.678 
       0.454126         478.227         252.596 
       0.460267         470.167         245.741 
       0.466387          464.59         239.056 
        0.47254         456.196          232.48 
       0.478662         454.557         226.127 
       0.484765         440.097         220.022 
       0.490885         436.458          214.15 
       0.497035         428.133         208.512 
       0.503198         422.677         203.131 
       0.509342         419.569         198.011 
       0.515458         414.786         193.113 
       0.521598          405.84         188.356 
       0.527764         398.523         183.718 
       0.533884         396.679         179.248 
           0.54         390.795         174.909 
       0.546137         389.424          170.68 
       0.552299         381.791         166.567 
       0.558452         379.432         162.602 
       0.564573         373.635         158.803 
       0.570708         367.569         155.139 
       0.576825         359.852         151.616 
       0.582926         358.205         148.218 
       0.589034         355.349         144.918 
       0.595184         352.082         141.691 
       0.601379         347.258         138.534 
       0.607522         341.777         135.495 
       0.613639         340.395         132.558 
       0.619772         332.133         129.703 
       0.625918         331.234         126.927 
       0.632068         326.173         124.233 
       0.638161          324.63         121.643 
         0.6443         319.108          119.11 
       0.650464         316.411         116.644 
       0.656582         314.528         114.266 
       0.662703         312.746         111.956 
       0.668861         306.902         109.698 
       0.675024         303.858           107.5 
       0.681124         302.048         105.385 
       0.687237          298.83         103.322 
       0.693381         294.506         101.304 
       0.699536         291.317         99.3361 
       0.705665         289.394         97.4294 
       0.711789         286.761          95.575 
       0.717957         284.931         93.7567 
        0.72409         281.799         91.9967 
       0.730186          278.83         90.2933 
       0.736317         275.813         88.6244 
       0.742472         274.413         86.9923 
       0.748622         271.836         85.4033 
        0.75476         269.079         83.8578 
       0.760888         265.701         82.3533 
       0.767043         265.532         80.8801 
       0.773185         262.202         79.4462 
       0.779291          257.75         78.0555 
       0.785407         257.354         76.6963 
       0.791564          254.36         75.3612 
       0.797719          251.59         74.0588 
       0.803834         250.183         72.7957 
       0.809972          248.33         71.5577 
       0.816124         248.368         70.3461 
       0.822261         244.615          69.166 
       0.828378         242.676         68.0168 
       0.834502         241.392         66.8929 
       0.840667         237.957         65.7873 
       0.846816         236.325         64.7101 
       0.852925         235.042         63.6639 
       0.859047         233.091         62.6389 
       0.865192         230.752         61.6333 
       0.871341         228.769         60.6493 
       0.877463         226.822         59.6914 
       0.883569         225.926         58.7567 
       0.889708         223.678         57.8375 
       0.895864         221.195         56.9357 
       0.902008         220.068         56.0551 
       0.908149         218.826         55.1939 
       0.914301         216.183         54.3494 
       0.920448         214.488         53.5236 
       0.926574         212.811          52.718 
       0.932687         212.814         51.9307 
       0.938823         210.055         51.1569 
       0.944975         208.272         50.3971 
       0.951105         207.067         49.6556 
       0.957225         205.557         48.9305 
       0.963368         203.074         48.2174 
       0.969511         202.363         47.5186 
       0.975621         200.064         46.8375 
       0.981748         200.222         46.1681 
       0.987916          198.03         45.5076 
        0.99406         195.764         44.8626 
        1.00019          195.67         44.2315 
        1.00632         193.689         43.6132 
        1.01246         192.323         43.0059 
        1.01859         191.848         42.4112 
        1.02471         189.478         41.8285 
        1.03085          187.31         41.2549 
        1.03698          186.89         40.6933 
        1.04314         184.898         40.1399 
        1.04929         183.902         39.5981 
        1.05541          183.26         39.0685 
        1.06154         181.347         38.5474 
        1.06769         181.174         38.0351 
        1.07382         179.725         37.5338 
        1.07993         177.999         37.0427 
        1.08607         177.059         36.5584 
        1.09222         176.087         36.0824 
        1.09836         174.476         35.6154 
        1.10449         172.525         35.1572 
        1.11063         170.991         34.7067 
        1.11677         170.814         34.2643 
         1.1229         169.237         33.8303 
        1.12903         168.127         33.4036 
        1.13518         167.249         32.9839 
        1.14131          165.91         32.5717 
        1.14745          165.19         32.1668 
        1.15359         164.006         31.7688 
        1.15973         163.301         31.3773 
        1.16584         161.317         30.9943 
        1.17197         160.663         30.6171 
        1.17811         159.487         30.2451 
        1.18424         158.516         29.8804 
        1.19038         158.122         29.5206 
        1.19652         156.616          29.167 
        1.20267          155.92         28.8192 
        1.20881         154.721         28.4771 
        1.21495         153.708         28.1412 
        1.22108         152.722         27.8107 
         1.2272         151.465         27.4864 
        1.23334         150.573         27.1665 
        1.23949         149.666         26.8509 
        1.24562         148.678         26.5413 
        1.25174         146.998         26.2371 
        1.25789         146.424         25.9367 
        1.26402         145.398         25.6416 
        1.27014         144.121         25.3518 
        1.27628         143.701         25.0656 
        1.28244         143.194         24.7834 
        1.28858         142.083         24.5059 
        1.29471         140.464         24.2333 
        1.30084         140.282         23.9651 
        1.30697         139.058         23.7006 
        1.31312         138.356         23.4397 
        1.31925         137.451         23.1836 
        1.32537         136.579         22.9316 
        1.33151         135.289         22.6824 
        1.33765         134.825         22.4371 
        1.34378         134.093         22.1959 
        1.34992         133.329         21.9581 
        1.35606         132.625         21.7233 
         1.3622           131.5         21.4924 
        1.36833         130.501         21.2653 
        1.37445         129.756         21.0417 
        1.38059         128.957         20.8206 
        1.38675         128.295         20.6022 
        1.39288         127.584         20.3878 
        1.39901         127.127         20.1765 
        1.40515         126.138         19.9678 
         1.4113         124.947         19.7622 
        1.41742         124.299         19.5602 
        1.42355         123.485         19.3606 
         1.4297         122.874         19.1633 
        1.43585         121.971         18.9688 
        1.44198          121.31         18.7778 
        1.44809         120.612         18.5897 
        1.45423         119.854         18.4036 
        1.46036         119.271         18.2204 
        1.46649         118.368         18.0395 
        1.47263         117.865          17.861 
        1.47877         117.173         17.6851 
        1.48491         116.085         17.5112 
        1.49104         115.597           17.34 
        1.49718         114.568          17.171 
        1.50333         114.089          17.004 
        1.50947         113.664         16.8395 
         1.5156         112.819         16.6775 
        1.52172         112.005         16.5176 
        1.52787         111.574         16.3595 
          1.534         110.836         16.2036 
        1.54013         109.913           16.05 
        1.54627         109.541          15.898 
        1.55241         108.712          15.748 
        1.55855         107.907         15.6002 
        1.56467         107.665         15.4547 
         1.5708         106.915         15.3106 
        1.57695         106.392         15.1682 
        1.58308         105.669         15.0279 
        1.58922         105.334         14.8893 
        1.59535         104.506         14.7524 
         1.6015         103.933         14.6172 
        1.60764         103.269         14.4837 
        1.61376         102.943         14.3522 
        1.61989         101.972         14.2223 
        1.62604         101.633         14.0937 
        1.63218         101.092         13.9667 
        1.63831         100.278         13.8417 
        1.64444         99.7907         13.7181 
        1.65059         99.2812         13.5957 
        1.65673         98.4415          13.475 
        1.66285         98.1304          13.356 
        1.66898         97.5814         13.2385 
        1.67512         97.1157         13.1222 
        1.68127         96.3802         13.0071 
         1.6874         95.6412         12.8937 
        1.69353         95.2602         12.7818 
        1.69967           94.59         12.6708 
        1.70581         94.3822         12.5613 
        1.71193         93.8539         12.4535 
        1.71806         93.0433         12.3467 
        1.72421         92.6101         12.2409 
        1.73035         91.9906         12.1365 
        1.73649         91.4549         12.0333 
        1.74262          90.926         11.9315 
        1.74876         90.6075         11.8307 
        1.75489         89.6664         11.7313 
        1.76101         89.3398         11.6331 
        1.76715         88.8208         11.5359 
        1.77329         88.4924         11.4397 
        1.77943         87.7296         11.3445 
        1.78557         87.4447         11.2506 
        1.79171         86.7061         11.1577 
        1.79785         86.4599         11.0659 
        1.80399         85.8603         10.9751 
        1.81012         85.3344         10.8854 
        1.81625          84.877         10.7968 
        1.82239         84.5445         10.7091 
        1.82853         84.0667         10.6223 
        1.83466         83.5005         10.5366 
        1.84078         83.2114          10.452 
        1.84692         82.5833         10.3682 
        1.85306         81.9969         10.2851 
         1.8592         81.7252         10.2031 
        1.86533         81.2336         10.1221 
        1.87147         80.6291         10.0418 
        1.87761         80.3062         9.96242 
        1.88375         79.7903         9.88395 
        1.88988         79.4221         9.80641 
        1.89601         78.8908         9.72967 
        1.90215         78.4695         9.65368 
        1.90829         78.0263         9.57854 
        1.91442         77.6195          9.5042 
        1.92056         77.0853         9.43071 
         1.9267         76.8425         9.35793 
        1.93284         76.2759         9.28587 
        1.93897         75.7395          9.2147 
        1.94509         75.5168         9.14444 
        1.95123         75.0594         9.07473 
        1.95737         74.6863          9.0057 
        1.96349         74.1293         8.93757 
        1.96964         73.7612         8.86995 
        1.97578         73.3164         8.80299 
        1.98192         73.1529         8.73687 
        1.98805         72.5841         8.67142 
        1.99419         72.1757         8.60664 
        2.00033         71.8182         8.54249 
        2.00647         71.5019         8.47901 
         2.0126         70.9144         8.41629 
        2.01874         70.3877          8.3541 
        2.02488         70.0529          8.2925 
        2.03101         69.8046         8.23163 
        2.03714         69.3821         8.17142 
        2.04328         68.9154         8.11176 
        2.04941         68.5936         8.05274 
        2.05554         68.2725         7.99435 
        2.06167         67.8409         7.93646 
        2.06781         67.4052         7.87914 
        2.07396         67.0863         7.82231 
        2.08009         66.7712         7.76613 
        2.08622          66.298         7.71057 
        2.09237         65.8919         7.65545 
        2.09851         65.7248         7.60085 
        2.10464         65.2265         7.54688 
        2.11077         64.8776          7.4935 
        2.11691         64.6637         7.44052 
        2.12305         64.1758         7.38805 
        2.12918          63.823         7.33621 
        2.13531          63.478         7.28486 
        2.14145         63.2238         7.23389 
         2.1476         62.8441         7.18334 
        2.15372         62.5233         7.13353 
        2.15985         62.1169         7.08415 
        2.16599         61.8037         7.03509 
        2.17213         61.4732         6.98655 
        2.17827         61.0162         6.93847 
         2.1844         60.7135          6.8909 
        2.19054         60.5605         6.84375 
        2.19666         60.1822         6.79711 
         2.2028         60.0001         6.75087 
        2.20893         59.5595         6.70503 
        2.21508         59.1892         6.65957 
        2.22122         58.9106         6.61452 
        2.22736         58.6787         6.56998 
        2.23349         58.1979         6.52586 
        2.23962          57.958         6.48212 
        2.24577         57.6517         6.43874 
         2.2519         57.3918         6.39583 
        2.25802         57.0197         6.35337 
        2.26417         56.6412         6.31118 
        2.27031         56.4094         6.26934 
        2.27644         56.2294           6.228 
        2.28257         55.8542         6.18703 
        2.28872         55.5562         6.14636 
        2.29486         55.1578         6.10606 
        2.30099         54.9449         6.06621 
        2.30712         54.6921         6.02669 
        2.31326         54.4597         5.98746 
         2.3194          54.162         5.94861 
        2.32553         53.7719         5.91016 
        2.33166         53.4999         5.87207 
         2.3378         53.2355         5.83426 
        2.34394         52.9899         5.79678 
        2.35007         52.6235         5.75968 
        2.35619         52.4672         5.72295 
        2.36233         52.1626         5.68645 
        2.36848         51.8594          5.6502 
        2.37462         51.5997         5.61433 
        2.38075         51.4849         5.57882 
        2.38689         51.0948         5.54358 
        2.39303         50.8727         5.50865 
        2.39916         50.6211         5.47406 
        2.40529         50.3485         5.43977 
        2.41143         50.0896         5.40574 
        2.41757         49.8163           5.372 
         2.4237         49.6581          5.3386 
        2.42983         49.3552         5.30549 
        2.43598         49.0725         5.27257 
        2.44211         48.8875         5.23999 
        2.44823         48.4635         5.20775 
        2.45437         48.3077          5.1757 
        2.46052         48.0746          5.1439 
        2.46665         47.9171         5.11241 
        2.47279         47.6074          5.0812 
        2.47892         47.4253         5.05023 
        2.48507         47.1397         5.01949 
         2.4912         46.9754         4.98906 
