# k  (h/Mpc)    P(k)  (Mpc/h)^3    P_linear(k)  (Mpc/h)^3
     0.00783031         1679.12         1680.74 
       0.013688            2066         2066.66 
       0.019231         2085.23         2082.44 
      0.0249154         1913.05         1914.59 
      0.0312784         1653.73         1647.86 
      0.0375637          1405.3         1397.25 
      0.0433917         1216.64         1214.71 
      0.0492413         1092.73         1084.45 
      0.0555754         986.426         989.268 
      0.0619321         929.778         919.261 
       0.067871         857.849         858.311 
      0.0738098         791.337         790.989 
      0.0800417         711.112         711.642 
      0.0862327         633.559         629.824 
      0.0921407         562.116         557.182 
      0.0982031         497.974         494.895 
       0.104506             455         446.359 
       0.110769         421.887         413.201 
       0.116806         396.514         391.297 
       0.122832         380.868         374.071 
       0.129052         359.956         356.242 
       0.135211         339.859         335.507 
       0.141259         318.184         311.704 
       0.147318          294.42         286.059 
       0.153489         267.888         260.723 
       0.159709         246.265         238.444 
       0.165845         231.735         220.992 
       0.171974         215.948         208.079 
       0.178125         207.337         198.641 
       0.184229         200.387         191.208 
        0.19034         190.501         184.129 
       0.196428         184.867          176.32 
       0.202534         177.247         167.315 
       0.208729          166.39          157.27 
       0.214876         155.566         147.143 
       0.220989         147.673         137.739 
       0.227147         138.229         129.552 
        0.23329         131.665         122.902 
       0.239377         127.209         117.662 
       0.245482         120.923         113.353 
       0.251667         118.688         109.445 
       0.257832         114.887         105.548 
       0.263955         110.415         101.413 
       0.270079         106.116         96.9767 
        0.27624         102.597         92.3556 
       0.282372         97.9778         87.8497 
        0.28843         93.5577         83.7174 
       0.294538         89.8657         80.0261 
       0.300721         87.3186         76.8091 
        0.30691         83.3891         74.0353 
       0.313033         81.1685         71.5912 
       0.319153         77.7291         69.2879 
       0.325316         76.4485         66.9842 
        0.33145         73.7735         64.6429 
       0.337538          71.683         62.2738 
       0.343633         69.0487         59.9089 
       0.349808         66.9866         57.5928 
       0.355968         64.8753         55.4325 
       0.362074         62.7491         53.4718 
       0.368217         61.0049          51.689 
       0.374374         59.2043         50.0593 
       0.380519         57.7292          48.545 
       0.386598         56.3096         47.1121 
       0.392688         55.0247         45.7025 
        0.39888         53.5573         44.2818 
       0.405048          52.171         42.8809 
       0.411186         50.9261         41.5146 
       0.417313         49.2657         40.2019 
       0.423458         47.9965         38.9543 
       0.429607         46.7298         37.7809 
       0.435692         45.2931         36.6962 
       0.441815         44.5587         35.6702 
       0.447964         43.8246         34.6896 
       0.454126          42.146         33.7435 
       0.460267         41.4612         32.8278 
       0.466387         40.2944         31.9348 
        0.47254         39.6898         31.0563 
       0.478662          38.984         30.2076 
       0.484765          37.781          29.392 
       0.490885         36.9571         28.6076 
       0.497035         36.4967         27.8543 
       0.503198         35.5567         27.1357 
       0.509342         34.6127         26.4517 
       0.515458         34.0096         25.7974 
       0.521598         33.4108         25.1619 
       0.527764         32.7009         24.5424 
       0.533884         32.1684         23.9452 
           0.54         31.4692         23.3655 
       0.546137          30.972         22.8006 
       0.552299         30.4861         22.2512 
       0.558452         29.5502         21.7215 
       0.564573         29.1268          21.214 
       0.570708         28.6846         20.7245 
       0.576825         27.9505          20.254 
       0.582926         27.4861         19.8001 
       0.589034         26.7948         19.3593 
       0.595184         26.4443         18.9281 
       0.601379         25.9479         18.5063 
       0.607522         25.5124         18.1004 
       0.613639         25.2529         17.7081 
       0.619772         24.5664         17.3266 
       0.625918         24.4723         16.9558 
       0.632068         24.0459         16.5959 
       0.638161         23.5619         16.2499 
         0.6443         23.1075         15.9116 
       0.650464         22.7051         15.5821 
       0.656582         22.5118         15.2645 
       0.662703         22.1123         14.9559 
       0.668861         21.7195         14.6542 
       0.675024         21.3421         14.3607 
       0.681124         20.9744         14.0781 
       0.687237         20.6586         13.8024 
       0.693381         20.4655         13.5329 
       0.699536         19.9221           13.27 
       0.705665         19.8114         13.0153 
       0.711789         19.4408         12.7676 
       0.717957         19.1761         12.5247 
        0.72409         18.8742         12.2896 
       0.730186         18.6102          12.062 
       0.736317         18.4241         11.8391 
       0.742472          18.114         11.6211 
       0.748622         17.9013         11.4088 
        0.75476          17.581         11.2023 
       0.760888         17.3599         11.0014 
       0.767043         17.1606         10.8046 
       0.773185         16.8408          10.613 
       0.779291         16.7441         10.4272 
       0.785407         16.4927         10.2457 
       0.791564         16.2315         10.0673 
       0.797719         15.9015         9.89331 
       0.803834         15.8583         9.72458 
       0.809972         15.7065          9.5592 
       0.816124         15.3652         9.39735 
       0.822261         15.2021          9.2397 
       0.828378         14.9989         9.08618 
       0.834502         14.8954         8.93604 
       0.840667         14.6542         8.78835 
       0.846816         14.4105         8.64445 
       0.852925         14.2778         8.50469 
       0.859047         14.1172         8.36777 
       0.865192         14.0038         8.23343 
       0.871341         13.8657         8.10198 
       0.877463         13.6207         7.97401 
       0.883569         13.4333         7.84916 
       0.889708         13.2436         7.72635 
       0.895864         13.1476         7.60588 
       0.902008         13.0252         7.48826 
       0.908149         12.8834          7.3732 
       0.914301         12.7505          7.2604 
       0.920448         12.5496         7.15008 
       0.926574         12.4069         7.04245 
       0.932687         12.2871         6.93729 
       0.938823         12.1379         6.83391 
       0.944975         11.9856         6.73242 
       0.951105         11.8743         6.63337 
       0.957225         11.7859         6.53649 
       0.963368         11.6579         6.44123 
       0.969511         11.5223         6.34788 
       0.975621          11.411          6.2569 
       0.981748         11.2826         6.16747 
       0.987916            11.2         6.07924 
        0.99406          11.016         5.99308 
        1.00019         10.8696         5.90877 
        1.00632         10.8551         5.82617 
        1.01246         10.7207         5.74504 
        1.01859         10.5731          5.6656 
        1.02471         10.4974         5.58776 
        1.03085         10.3899         5.51113 
        1.03698         10.2472         5.43611 
        1.04314         10.1882         5.36218 
        1.04929         10.0599          5.2898 
        1.05541         9.94676         5.21906 
        1.06154         9.86786         5.14945 
        1.06769         9.81337         5.08101 
        1.07382         9.66227         5.01404 
        1.07993         9.58047         4.94844 
        1.08607         9.51435         4.88375 
        1.09222         9.42376         4.82015 
        1.09836         9.32382         4.75777 
        1.10449         9.24069         4.69656 
        1.11063         9.14879         4.63638 
        1.11677         9.09938         4.57727 
         1.1229          9.0226         4.51931 
        1.12903         8.91261          4.4623 
        1.13518         8.80819         4.40623 
        1.14131         8.73596         4.35117 
        1.14745         8.64576         4.29708 
        1.15359         8.60252         4.24391 
        1.15973         8.52174         4.19161 
        1.16584         8.40082         4.14044 
        1.17197         8.34253         4.09006 
        1.17811         8.29755         4.04036 
        1.18424         8.23068         3.99164 
        1.19038         8.17824         3.94359 
        1.19652         8.09771         3.89634 
        1.20267         8.00177         3.84988 
        1.20881         7.99329         3.80418 
        1.21495         7.90985          3.7593 
        1.22108         7.81733         3.71516 
         1.2272         7.77431         3.67183 
        1.23334          7.6889          3.6291 
        1.23949         7.60544         3.58695 
        1.24562         7.58023         3.54558 
        1.25174         7.51353         3.50494 
        1.25789         7.45989         3.46481 
        1.26402         7.40463         3.42539 
        1.27014         7.34585         3.38668 
        1.27628          7.2747         3.34845 
        1.28244          7.1999         3.31075 
        1.28858         7.18535         3.27368 
        1.29471         7.10135         3.23726 
        1.30084         7.03549         3.20143 
        1.30697         7.03759          3.1661 
        1.31312         6.91826         3.13125 
        1.31925         6.88184         3.09703 
        1.32537         6.83977         3.06337 
        1.33151         6.80766         3.03008 
        1.33765         6.72876         2.99731 
        1.34378         6.68673         2.96509 
        1.34992         6.65527         2.93333 
        1.35606         6.58799         2.90196 
         1.3622          6.5535         2.87111 
        1.36833          6.4908         2.84078 
        1.37445         6.45451         2.81091 
        1.38059          6.4297         2.78137 
        1.38675           6.385         2.75219 
        1.39288         6.33472         2.72355 
        1.39901         6.27335         2.69533 
        1.40515         6.24091         2.66745 
         1.4113         6.20783         2.63997 
        1.41742         6.16229         2.61299 
        1.42355         6.10661         2.58634 
         1.4297         6.07846         2.55998 
        1.43585         6.04523           2.534 
        1.44198         6.03089         2.50848 
        1.44809         5.96667         2.48336 
        1.45423          5.9191         2.45849 
        1.46036         5.88403         2.43401 
        1.46649         5.84803         2.40986 
        1.47263         5.81264         2.38601 
        1.47877          5.7748          2.3625 
        1.48491         5.74222         2.33927 
        1.49104         5.70873          2.3164 
        1.49718         5.68249         2.29383 
        1.50333         5.65434         2.27151 
        1.50947         5.60464         2.24955 
         1.5156         5.58735          2.2279 
        1.52172         5.55633         2.20654 
        1.52787         5.52038         2.18542 
          1.534         5.48259          2.1646 
        1.54013           5.473         2.14407 
        1.54627         5.42294         2.12378 
        1.55241         5.40492         2.10374 
        1.55855           5.377         2.08399 
        1.56467         5.35242         2.06455 
         1.5708         5.31544          2.0453 
        1.57695         5.27913         2.02628 
        1.58308         5.25941         2.00753 
        1.58922         5.24508         1.98902 
        1.59535         5.22944         1.97074 
         1.6015         5.19053         1.95267 
        1.60764          5.1713         1.93483 
        1.61376         5.14251         1.91727 
        1.61989         5.13695         1.89992 
        1.62604          5.0997         1.88273 
        1.63218         5.11076         1.86578 
        1.63831         5.06697         1.84907 
        1.64444         5.04689         1.83256 
        1.65059         5.02124         1.81621 
        1.65673         5.02352         1.80009 
        1.66285         4.97994          1.7842 
        1.66898         4.96274          1.7685 
        1.67512         4.95736         1.75296 
        1.68127         4.93791         1.73759 
         1.6874         4.92505         1.72244 
        1.69353         4.90317         1.70748 
        1.69967          4.9011         1.69266 
        1.70581         4.88186         1.67803 
        1.71193         4.86935         1.66362 
        1.71806         4.86149         1.64936 
        1.72421          4.8542         1.63523 
        1.73035         4.84407         1.62128 
        1.73649         4.83018          1.6075 
        1.74262         4.81186         1.59389 
        1.74876         4.81404         1.58043 
        1.75489         4.79968         1.56716 
        1.76101         4.78188         1.55404 
        1.76715          4.7924         1.54105 
        1.77329         4.77434          1.5282 
        1.77943         4.75495         1.51549 
        1.78557         4.76132         1.50294 
        1.79171         4.75114         1.49053 
        1.79785          4.7524         1.47826 
        1.80399         4.75841         1.46613 
        1.81012         4.74744         1.45415 
        1.81625         4.74469         1.44232 
        1.82239         4.74447         1.43059 
        1.82853           4.746         1.41901 
        1.83466          4.7428         1.40756 
        1.84078         4.73775         1.39626 
        1.84692         4.74838         1.38505 
        1.85306         4.74534         1.37396 
         1.8592         4.73894         1.36301 
        1.86533         4.74396         1.35218 
        1.87147         4.75756         1.34146 
        1.87761          4.7407         1.33085 
        1.88375         4.75365         1.32037 
        1.88988         4.75963         1.31001 
        1.89601         4.76186         1.29976 
        1.90215         4.76059         1.28961 
        1.90829         4.78042         1.27957 
        1.91442         4.78852         1.26964 
        1.92056         4.80589         1.25982 
         1.9267         4.81124          1.2501 
        1.93284         4.81356         1.24047 
        1.93897         4.82285         1.23097 
        1.94509         4.84006         1.22158 
        1.95123         4.83983         1.21227 
        1.95737         4.85282         1.20305 
        1.96349         4.87031         1.19395 
        1.96964         4.89486         1.18491 
        1.97578         4.89957         1.17597 
        1.98192         4.90812         1.16714 
        1.98805         4.94307         1.15839 
        1.99419         4.93597         1.14974 
        2.00033         4.96103         1.14117 
        2.00647         4.98382         1.13269 
         2.0126         5.00723         1.12431 
        2.01874          5.0107           1.116 
        2.02488         5.05213         1.10777 
        2.03101         5.06444         1.09964 
        2.03714         5.07357          1.0916 
        2.04328          5.1007         1.08363 
        2.04941         5.13602         1.07574 
        2.05554         5.14578         1.06794 
        2.06167         5.18871         1.06021 
        2.06781         5.21427         1.05255 
        2.07396         5.22416         1.04496 
        2.08009         5.27263         1.03746 
        2.08622         5.28895         1.03003 
        2.09237         5.31153         1.02267 
        2.09851         5.34958         1.01538 
        2.10464          5.3748         1.00817 
        2.11077         5.42279         1.00104 
        2.11691         5.45043        0.993959 
        2.12305         5.47656        0.986949 
        2.12918         5.51066        0.980024 
        2.13531         5.53226        0.973165 
        2.14145         5.57248        0.966355 
         2.1476         5.61946        0.959603 
        2.15372         5.63685        0.952949 
        2.15985           5.676        0.946352 
        2.16599          5.7262        0.939798 
        2.17213         5.74198        0.933314 
        2.17827         5.79224        0.926892 
         2.1844         5.83379        0.920536 
        2.19054         5.89823        0.914238 
        2.19666         5.91849        0.908008 
         2.2028         5.95403         0.90183 
        2.20893         5.99076        0.895707 
        2.21508         6.02064        0.889634 
        2.22122         6.10256        0.883616 
        2.22736         6.15562        0.877665 
        2.23349         6.20224        0.871771 
        2.23962         6.24419        0.865928 
        2.24577         6.28402        0.860134 
         2.2519         6.32019        0.854401 
        2.25802         6.38675        0.848729 
        2.26417         6.42156        0.843094 
        2.27031          6.4638        0.837504 
        2.27644         6.53603        0.831981 
        2.28257         6.56916        0.826509 
        2.28872         6.64512        0.821075 
        2.29486         6.69336        0.815692 
        2.30099         6.74078        0.810368 
        2.30712         6.81068        0.805089 
        2.31326         6.87485        0.799849 
         2.3194         6.90432        0.794658 
        2.32553         6.93928        0.789522 
        2.33166         7.02909        0.784434 
         2.3378         7.06891        0.779383 
        2.34394          7.1349        0.774376 
        2.35007         7.18637        0.769419 
        2.35619         7.23964        0.764513 
        2.36233         7.31405        0.759637 
        2.36848         7.37006        0.754794 
        2.37462         7.44232        0.750003 
        2.38075         7.52078        0.745259 
        2.38689         7.60772        0.740551 
        2.39303         7.62226        0.735885 
        2.39916         7.72881        0.731264 
        2.40529         7.75344        0.726683 
        2.41143         7.84468        0.722138 
        2.41757         7.90487         0.71763 
         2.4237         7.96312        0.713169 
        2.42983         8.00494        0.708745 
        2.43598         8.08732        0.704348 
        2.44211         8.17765        0.699996 
        2.44823         8.22078        0.695689 
        2.45437            8.32        0.691408 
        2.46052         8.36655        0.687159 
        2.46665         8.42817        0.682953 
        2.47279           8.478        0.678783 
        2.47892         8.55193        0.674646 
        2.48507         8.64616         0.67054 
         2.4912         8.70953        0.666475 
