# k  (h/Mpc)    P(k)  (Mpc/h)^3    P_linear(k)  (Mpc/h)^3
     0.00783031         1042.84         1043.88 
       0.013688         1281.94         1283.82 
       0.019231            1295         1293.74 
      0.0249154         1189.85         1189.53 
      0.0312784         1028.04         1023.84 
      0.0375637         873.189         868.153 
      0.0433917         756.918         754.745 
      0.0492413          679.31         673.817 
      0.0555754         614.253         614.681 
      0.0619321          577.54         571.185 
       0.067871         533.968         533.316 
      0.0738098         492.614         491.487 
      0.0800417         443.014         442.185 
      0.0862327         394.247         391.348 
      0.0921407         349.409         346.211 
      0.0982031         309.738         307.509 
       0.104506         282.266         277.351 
       0.110769         261.716         256.749 
       0.116806         246.231         243.139 
       0.122832         236.413         232.435 
       0.129052         223.762         221.357 
       0.135211         211.174         208.472 
       0.141259         197.384         193.682 
       0.147318         182.421         177.748 
       0.153489         166.027         162.005 
       0.159709         152.332         148.161 
       0.165845          143.04         137.318 
       0.171974         133.361         129.294 
       0.178125         127.976         123.429 
       0.184229         123.643         118.811 
        0.19034         117.885         114.412 
       0.196428          114.09          109.56 
       0.202534         109.182         103.964 
       0.208729         102.441         97.7227 
       0.214876         95.7697         91.4302 
       0.220989         90.6335         85.5868 
       0.227147         84.8452         80.4996 
        0.23329         80.7303         76.3674 
       0.239377         77.8155         73.1115 
       0.245482         74.2454         70.4341 
       0.251667          72.671         68.0057 
       0.257832         70.2285         65.5842 
       0.263955          67.531          63.015 
       0.270079         64.8504         60.2584 
        0.27624         62.4702          57.387 
       0.282372         59.5937         54.5872 
        0.28843         56.8411         52.0195 
       0.294538          54.579         49.7258 
       0.300721         52.8742         47.7268 
        0.30691         50.5374         46.0033 
       0.313033         49.1288         44.4846 
       0.319153          47.121         43.0534 
       0.325316         46.2774          41.622 
        0.33145         44.6982         40.1672 
       0.337538         43.2483         38.6951 
       0.343633         41.6185         37.2256 
       0.349808         40.3564         35.7865 
       0.355968         38.9762         34.4441 
       0.362074         37.6965         33.2258 
       0.368217         36.5967          32.118 
       0.374374         35.4627         31.1054 
       0.380519         34.5607         30.1644 
       0.386598         33.7139         29.2741 
       0.392688         32.8811         28.3982 
        0.39888         31.9701         27.5154 
       0.405048         31.0925         26.6449 
       0.411186         30.3023         25.7959 
       0.417313         29.2907         24.9803 
       0.423458          28.504          24.205 
       0.429607          27.706          23.476 
       0.435692         26.9102          22.802 
       0.441815         26.3575         22.1644 
       0.447964         25.8945         21.5551 
       0.454126         24.9706         20.9672 
       0.460267         24.4946         20.3982 
       0.466387         23.7691         19.8433 
        0.47254         23.3658         19.2975 
       0.478662         22.8991         18.7701 
       0.484765         22.1993         18.2633 
       0.490885         21.6834         17.7759 
       0.497035         21.3891         17.3079 
       0.503198         20.8361         16.8613 
       0.509342         20.2914         16.4363 
       0.515458         19.9004         16.0297 
       0.521598         19.5049         15.6349 
       0.527764         19.0467         15.2499 
       0.533884         18.7274         14.8788 
           0.54         18.3006         14.5187 
       0.546137         17.9744         14.1677 
       0.552299         17.6564         13.8263 
       0.558452         17.1234         13.4971 
       0.564573         16.8728         13.1817 
       0.570708         16.5731         12.8776 
       0.576825         16.1351         12.5852 
       0.582926         15.8772         12.3032 
       0.589034         15.4544         12.0293 
       0.595184          15.232         11.7613 
       0.601379         14.9116         11.4993 
       0.607522         14.6841          11.247 
       0.613639          14.502         11.0033 
       0.619772         14.0973         10.7662 
       0.625918         14.0018         10.5358 
       0.632068         13.7597         10.3122 
       0.638161         13.4563         10.0972 
         0.6443         13.1877         9.88702 
       0.650464         12.9295         9.68226 
       0.656582         12.8046         9.48493 
       0.662703         12.5742         9.29317 
       0.668861         12.3589         9.10571 
       0.675024         12.1168         8.92329 
       0.681124         11.9107          8.7477 
       0.687237         11.7303         8.57644 
       0.693381         11.5812         8.40894 
       0.699536         11.2684         8.24562 
       0.705665         11.1506         8.08735 
       0.711789         10.9692         7.93341 
       0.717957         10.7957         7.78249 
        0.72409         10.6109         7.63639 
       0.730186          10.458           7.495 
       0.736317         10.3509         7.35647 
       0.742472         10.1868         7.22099 
       0.748622         10.0194         7.08909 
        0.75476         9.82733         6.96081 
       0.760888         9.70938         6.83593 
       0.767043         9.59179         6.71364 
       0.773185          9.3983         6.59461 
       0.779291         9.31872         6.47917 
       0.785407         9.16538         6.36635 
       0.791564         9.03059         6.25553 
       0.797719          8.8707         6.14742 
       0.803834          8.8074         6.04257 
       0.809972         8.70541         5.93981 
       0.816124         8.52887         5.83924 
       0.822261         8.40374         5.74128 
       0.828378         8.29177         5.64589 
       0.834502         8.23235          5.5526 
       0.840667         8.06892         5.46083 
       0.846816         7.94198         5.37141 
       0.852925         7.87299         5.28457 
       0.859047         7.77225         5.19949 
       0.865192         7.70126         5.11601 
       0.871341         7.61095         5.03433 
       0.877463         7.49136         4.95482 
       0.883569          7.3641         4.87724 
       0.889708         7.25714         4.80093 
       0.895864         7.19404         4.72608 
       0.902008         7.10349         4.65299 
       0.908149            7.03         4.58149 
       0.914301         6.91392          4.5114 
       0.920448         6.82973         4.44285 
       0.926574         6.73306         4.37598 
       0.932687         6.66916         4.31063 
       0.938823         6.59018          4.2464 
       0.944975         6.50166         4.18333 
       0.951105         6.43591         4.12178 
       0.957225         6.39636         4.06159 
       0.963368         6.30694          4.0024 
       0.969511         6.22396         3.94439 
       0.975621         6.14387         3.88786 
       0.981748         6.08498         3.83229 
       0.987916          6.0201         3.77747 
        0.99406         5.91688         3.72393 
        1.00019         5.85276         3.67154 
        1.00632         5.81997         3.62022 
        1.01246         5.74623          3.5698 
        1.01859         5.67102         3.52044 
        1.02471         5.61362         3.47207 
        1.03085         5.55346         3.42446 
        1.03698         5.47768         3.37784 
        1.04314         5.44075          3.3319 
        1.04929         5.36784         3.28693 
        1.05541         5.30618         3.24298 
        1.06154         5.25771         3.19972 
        1.06769         5.22504         3.15719 
        1.07382         5.14277         3.11558 
        1.07993         5.07977         3.07482 
        1.08607         5.05492         3.03462 
        1.09222         4.99254          2.9951 
        1.09836         4.94638         2.95634 
        1.10449         4.89629         2.91831 
        1.11063         4.83968         2.88091 
        1.11677         4.80281         2.84419 
         1.1229         4.74668         2.80817 
        1.12903         4.69884         2.77274 
        1.13518         4.65309         2.73791 
        1.14131         4.59302         2.70369 
        1.14745         4.53405         2.67008 
        1.15359         4.51388         2.63704 
        1.15973         4.46065         2.60455 
        1.16584         4.41852         2.57275 
        1.17197         4.37619         2.54145 
        1.17811         4.34124         2.51057 
        1.18424         4.30481         2.48029 
        1.19038         4.26874         2.45043 
        1.19652         4.22732         2.42108 
        1.20267         4.17887          2.3922 
        1.20881         4.15429         2.36381 
        1.21495         4.11117         2.33592 
        1.22108         4.07219         2.30849 
         1.2272         4.04804         2.28157 
        1.23334         3.99525         2.25502 
        1.23949         3.95223         2.22882 
        1.24562         3.93478         2.20312 
        1.25174         3.88821         2.17787 
        1.25789         3.86107         2.15294 
        1.26402          3.8221         2.12844 
        1.27014         3.78659         2.10439 
        1.27628         3.76854         2.08063 
        1.28244         3.71703          2.0572 
        1.28858         3.69936         2.03417 
        1.29471         3.65868         2.01154 
        1.30084         3.62373         1.98928 
        1.30697         3.61853         1.96732 
        1.31312         3.55115         1.94567 
        1.31925         3.53929         1.92441 
        1.32537         3.51023         1.90349 
        1.33151         3.49078         1.88281 
        1.33765         3.44642         1.86244 
        1.34378         3.42246         1.84242 
        1.34992         3.41038         1.82269 
        1.35606         3.36115          1.8032 
         1.3622         3.34688         1.78402 
        1.36833         3.31638         1.76518 
        1.37445         3.28977         1.74662 
        1.38059          3.2751         1.72827 
        1.38675         3.25428         1.71013 
        1.39288          3.2188         1.69234 
        1.39901          3.1936          1.6748 
        1.40515         3.16968         1.65748 
         1.4113         3.14944          1.6404 
        1.41742         3.12653         1.62364 
        1.42355         3.10683         1.60708 
         1.4297         3.07969          1.5907 
        1.43585         3.06185         1.57455 
        1.44198         3.04878         1.55869 
        1.44809         3.01504         1.54309 
        1.45423         2.99189         1.52763 
        1.46036         2.97028         1.51242 
        1.46649         2.94954         1.49741 
        1.47263         2.92973          1.4826 
        1.47877          2.9059         1.46799 
        1.48491         2.88698         1.45356 
        1.49104         2.87495         1.43935 
        1.49718         2.85656         1.42532 
        1.50333         2.84118         1.41145 
        1.50947         2.82014          1.3978 
         1.5156         2.80012         1.38435 
        1.52172         2.78586         1.37108 
        1.52787         2.76468         1.35796 
          1.534         2.74919         1.34502 
        1.54013         2.73348         1.33226 
        1.54627         2.71018         1.31965 
        1.55241         2.69466          1.3072 
        1.55855         2.68542         1.29493 
        1.56467         2.66966         1.28285 
         1.5708         2.64669         1.27089 
        1.57695         2.63095         1.25907 
        1.58308         2.62013         1.24742 
        1.58922         2.60849         1.23592 
        1.59535         2.59467         1.22456 
         1.6015         2.58267         1.21333 
        1.60764         2.57029         1.20225 
        1.61376         2.55682         1.19134 
        1.61989         2.53898         1.18055 
        1.62604          2.5271         1.16988 
        1.63218         2.52737         1.15934 
        1.63831         2.50083         1.14896 
        1.64444         2.49111          1.1387 
        1.65059         2.48861         1.12854 
        1.65673         2.47837         1.11852 
        1.66285         2.45986         1.10865 
        1.66898         2.45821         1.09889 
        1.67512          2.4452         1.08924 
        1.68127         2.43379         1.07969 
         1.6874         2.42873         1.07028 
        1.69353         2.41471         1.06098 
        1.69967         2.41254         1.05177 
        1.70581         2.41199         1.04268 
        1.71193         2.40225         1.03373 
        1.71806         2.39322         1.02486 
        1.72421         2.39048         1.01608 
        1.73035         2.38899         1.00742 
        1.73649         2.37773        0.998856 
        1.74262         2.37314          0.9904 
        1.74876          2.3695        0.982036 
        1.75489         2.35866        0.973787 
        1.76101         2.35504        0.965635 
        1.76715         2.36339        0.957565 
        1.77329         2.35063        0.949578 
        1.77943         2.34668        0.941679 
        1.78557          2.3455        0.933882 
        1.79171         2.34733        0.926172 
        1.79785         2.34203        0.918548 
        1.80399         2.34913        0.911011 
        1.81012         2.34733         0.90357 
        1.81625         2.34713        0.896215 
        1.82239         2.35374        0.888931 
        1.82853         2.34536        0.881732 
        1.83466         2.34427        0.874619 
        1.84078         2.34665        0.867593 
        1.84692         2.35177        0.860633 
        1.85306         2.35598        0.853741 
         1.8592         2.35752        0.846936 
        1.86533         2.36686        0.840208 
        1.87147         2.37446        0.833546 
        1.87761         2.36849        0.826954 
        1.88375         2.36897        0.820441 
        1.88988         2.37802        0.814004 
        1.89601         2.38567        0.807634 
        1.90215         2.38896        0.801327 
        1.90829         2.39783         0.79509 
        1.91442         2.40462        0.788918 
        1.92056         2.41694        0.782819 
         1.9267         2.41752        0.776777 
        1.93284         2.42744        0.770795 
        1.93897         2.43873        0.764888 
        1.94509         2.45665        0.759056 
        1.95123         2.45713         0.75327 
        1.95737          2.4695         0.74754 
        1.96349         2.48571        0.741884 
        1.96964         2.49432        0.736271 
        1.97578         2.50659        0.730713 
        1.98192          2.5168        0.725224 
        1.98805         2.52728        0.719792 
        1.99419         2.53879        0.714414 
        2.00033         2.55804        0.709089 
        2.00647         2.57954         0.70382 
         2.0126         2.58819        0.698614 
        2.01874         2.59955        0.693452 
        2.02488           2.626        0.688338 
        2.03101         2.64302        0.683285 
        2.03714         2.65317        0.678288 
        2.04328         2.66378        0.673336 
        2.04941          2.6946        0.668436 
        2.05554          2.7168         0.66359 
        2.06167         2.73534        0.658785 
        2.06781         2.75213        0.654027 
        2.07396          2.7758        0.649309 
        2.08009          2.8031        0.644646 
        2.08622         2.81645        0.640034 
        2.09237         2.84296        0.635458 
        2.09851         2.87034        0.630927 
        2.10464          2.8943        0.626447 
        2.11077         2.92654        0.622016 
        2.11691         2.94989        0.617618 
        2.12305         2.97245        0.613262 
        2.12918         3.00532        0.608959 
        2.13531         3.02182        0.604697 
        2.14145         3.05117        0.600466 
         2.1476         3.08784         0.59627 
        2.15372         3.11967        0.592136 
        2.15985         3.14404        0.588036 
        2.16599         3.18085        0.583964 
        2.17213         3.21638        0.579935 
        2.17827         3.24783        0.575944 
         2.1844          3.2855        0.571995 
        2.19054         3.32274        0.568082 
        2.19666         3.34874         0.56421 
         2.2028         3.37196        0.560372 
        2.20893         3.42233        0.556567 
        2.21508         3.43555        0.552793 
        2.22122         3.51088        0.549054 
        2.22736         3.56047        0.545356 
        2.23349         3.58861        0.541694 
        2.23962         3.63492        0.538063 
        2.24577         3.66767        0.534463 
         2.2519         3.71022        0.530901 
        2.25802         3.75654        0.527376 
        2.26417         3.79992        0.523875 
        2.27031          3.8496        0.520401 
        2.27644         3.90023         0.51697 
        2.28257         3.93519        0.513569 
        2.28872         3.98434        0.510193 
        2.29486         4.04736        0.506848 
        2.30099            4.09         0.50354 
        2.30712         4.15362         0.50026 
        2.31326         4.20963        0.497003 
         2.3194         4.24745        0.493778 
        2.32553         4.29814        0.490587 
        2.33166          4.3602        0.487425 
         2.3378         4.40583        0.484287 
        2.34394         4.49649        0.481175 
        2.35007         4.52958        0.478095 
        2.35619         4.58594        0.475047 
        2.36233         4.67514        0.472017 
        2.36848         4.71708        0.469008 
        2.37462         4.80444        0.466031 
        2.38075         4.85492        0.463083 
        2.38689         4.95258        0.460158 
        2.39303         4.97867        0.457258 
        2.39916         5.07341        0.454387 
        2.40529         5.12163         0.45154 
        2.41143          5.1981        0.448716 
        2.41757         5.26986        0.445915 
         2.4237         5.32719        0.443143 
        2.42983         5.42777        0.440394 
        2.43598         5.46141        0.437662 
        2.44211         5.56742        0.434957 
        2.44823         5.64434        0.432282 
        2.45437          5.7198        0.429621 
        2.46052         5.80943        0.426981 
        2.46665         5.88281        0.424367 
        2.47279          5.9483        0.421777 
        2.47892         6.03818        0.419206 
        2.48507         6.14892        0.416654 
         2.4912         6.22309        0.414129 
