# k  (h/Mpc)    Pcb(k)  (Mpc/h)^3    Pcb_linear(k)  (Mpc/h)^3
     0.00783031         139.865         140.873 
       0.013688         172.615         173.487 
       0.019231          174.61         174.909 
      0.0249154         160.501         160.857 
      0.0312784         138.561         138.472 
      0.0375637         117.672         117.427 
      0.0433917         102.233         102.093 
      0.0492413          91.378         91.1499 
      0.0555754         83.1525         83.1527 
      0.0619321         77.4768         77.2704 
       0.067871         72.1184         72.1486 
      0.0738098         66.4436         66.4907 
      0.0800417         59.7815         59.8216 
      0.0862327          52.993         52.9445 
      0.0921407         46.9291         46.8385 
      0.0982031         41.6566         41.6029 
       0.104506         37.6815          37.523 
       0.110769         34.8713         34.7358 
       0.116806         32.9378         32.8945 
       0.122832         31.5284         31.4465 
       0.129052         29.9621         29.9478 
       0.135211          28.212         28.2047 
       0.141259           26.26         26.2038 
       0.147318         24.1497          24.048 
       0.153489         22.0055         21.9182 
       0.159709         20.1268         20.0453 
       0.165845          18.725         18.5782 
       0.171974         17.5632         17.4927 
       0.178125          16.781         16.6992 
       0.184229         16.1661         16.0744 
        0.19034         15.5153         15.4793 
       0.196428          14.888         14.8228 
       0.202534         14.1762         14.0658 
       0.208729         13.3024         13.2214 
       0.214876         12.4237           12.37 
       0.220989         11.6883         11.5795 
       0.227147         10.9497         10.8912 
        0.23329         10.3936         10.3321 
       0.239377         9.95948          9.8916 
       0.245482         9.58018         9.52938 
       0.251667          9.2786         9.20081 
       0.257832         8.93528         8.87321 
       0.263955         8.59649         8.52562 
       0.270079         8.22689         8.15265 
        0.27624         7.85657         7.76418 
       0.282372          7.4762         7.38539 
        0.28843         7.11134           7.038 
       0.294538         6.80363         6.72766 
       0.300721         6.54624         6.45721 
        0.30691         6.29943         6.22404 
       0.313033          6.0902         6.01857 
       0.319153         5.86717         5.82492 
       0.325316           5.715         5.63126 
        0.33145         5.51095         5.43445 
       0.337538          5.3083         5.23527 
       0.343633         5.10296         5.03646 
       0.349808         4.91524         4.84176 
       0.355968         4.73518         4.66014 
       0.362074         4.56542         4.49531 
       0.368217          4.4166         4.34542 
       0.374374          4.2643         4.20842 
       0.380519         4.14919         4.08111 
       0.386598         4.03174         3.96066 
       0.392688         3.91958         3.84215 
        0.39888         3.79361         3.72271 
       0.405048         3.67735         3.60495 
       0.411186         3.56483         3.49008 
       0.417313         3.44653         3.37973 
       0.423458          3.3488         3.27483 
       0.429607         3.24121         3.17621 
       0.435692         3.14999           3.085 
       0.441815         3.06347         2.99875 
       0.447964         2.98838         2.91631 
       0.454126         2.90046         2.83678 
       0.460267         2.82015         2.75979 
       0.466387         2.74181         2.68472 
        0.47254         2.67028         2.61087 
       0.478662         2.60333         2.53952 
       0.484765         2.52859         2.47095 
       0.490885         2.46551         2.40501 
       0.497035         2.41133         2.34169 
       0.503198         2.34348         2.28126 
       0.509342         2.29027         2.22376 
       0.515458         2.22921         2.16876 
       0.521598         2.17751         2.11533 
       0.527764         2.11929         2.06325 
       0.533884         2.07637         2.01305 
           0.54         2.02673         1.96431 
       0.546137         1.98065         1.91683 
       0.552299         1.93186         1.87064 
       0.558452         1.88192          1.8261 
       0.564573         1.84338         1.78344 
       0.570708         1.80133         1.74229 
       0.576825         1.75984         1.70273 
       0.582926         1.72647         1.66457 
       0.589034         1.67908         1.62751 
       0.595184         1.64431         1.59126 
       0.601379          1.6099         1.55581 
       0.607522         1.57948         1.52168 
       0.613639          1.5506          1.4887 
       0.619772         1.51083         1.45663 
       0.625918         1.48281         1.42546 
       0.632068         1.45412          1.3952 
       0.638161         1.42131         1.36611 
         0.6443         1.39199         1.33767 
       0.650464         1.36118         1.30997 
       0.656582         1.33664         1.28327 
       0.662703         1.31158         1.25733 
       0.668861         1.28834         1.23197 
       0.675024         1.26149         1.20729 
       0.681124         1.23385         1.18353 
       0.687237         1.21421         1.16036 
       0.693381         1.19165          1.1377 
       0.699536          1.1641          1.1156 
       0.705665         1.14362         1.09419 
       0.711789         1.12558         1.07336 
       0.717957         1.10135         1.05294 
        0.72409         1.08353         1.03317 
       0.730186         1.06263         1.01404 
       0.736317         1.04788        0.995301 
       0.742472         1.02799        0.976971 
       0.748622         1.00933        0.959126 
        0.75476        0.988041         0.94177 
       0.760888        0.972047        0.924874 
       0.767043        0.959281        0.908328 
       0.773185        0.940414        0.892225 
       0.779291        0.924449        0.876607 
       0.785407        0.909717        0.861342 
       0.791564        0.894651        0.846348 
       0.797719        0.880586        0.831721 
       0.803834        0.866414        0.817536 
       0.809972        0.851804        0.803633 
       0.816124        0.836596        0.790026 
       0.822261        0.821902        0.776773 
       0.828378        0.810544        0.763866 
       0.834502        0.799054        0.751244 
       0.840667         0.78438        0.738828 
       0.846816        0.772897         0.72673 
       0.852925        0.762845        0.714982 
       0.859047        0.750684         0.70347 
       0.865192        0.737146        0.692177 
       0.871341        0.726345        0.681125 
       0.877463        0.717468        0.670368 
       0.883569        0.705103        0.659871 
       0.889708        0.694124        0.649547 
       0.895864        0.683816         0.63942 
       0.902008        0.673348        0.629531 
       0.908149        0.663352        0.619858 
       0.914301        0.651523        0.610375 
       0.920448         0.64326          0.6011 
       0.926574        0.633779        0.592053 
       0.932687        0.624632        0.583211 
       0.938823        0.618366        0.574521 
       0.944975        0.608399        0.565988 
       0.951105        0.600775        0.557661 
       0.957225        0.593529        0.549517 
       0.963368        0.584443        0.541509 
       0.969511        0.575277        0.533661 
       0.975621        0.567133        0.526012 
       0.981748        0.561821        0.518494 
       0.987916        0.553509        0.511076 
        0.99406        0.545211        0.503833 
        1.00019        0.539482        0.496745 
        1.00632        0.530699        0.489801 
        1.01246        0.523378         0.48298 
        1.01859        0.517476        0.476302 
        1.02471        0.510587        0.469758 
        1.03085        0.505112        0.463316 
        1.03698        0.497555        0.457009 
        1.04314        0.491558        0.450794 
        1.04929        0.484593        0.444709 
        1.05541        0.479411        0.438762 
        1.06154        0.472649         0.43291 
        1.06769        0.466413        0.427156 
        1.07382        0.460837        0.421526 
        1.07993        0.454667        0.416011 
        1.08607        0.450883        0.410572 
        1.09222        0.444296        0.405226 
        1.09836        0.440602        0.399981 
        1.10449        0.434684        0.394836 
        1.11063         0.42808        0.389776 
        1.11677        0.422521        0.384807 
         1.1229        0.418563        0.379934 
        1.12903        0.413204        0.375141 
        1.13518        0.409344        0.370428 
        1.14131        0.403791        0.365799 
        1.14745        0.397792        0.361252 
        1.15359        0.394339        0.356781 
        1.15973        0.388721        0.352385 
        1.16584        0.385898        0.348084 
        1.17197        0.381005        0.343848 
        1.17811        0.377246         0.33967 
        1.18424        0.373892        0.335574 
        1.19038        0.368453        0.331534 
        1.19652        0.363815        0.327562 
        1.20267        0.361507        0.323656 
        1.20881        0.356658        0.319814 
        1.21495        0.353746        0.316041 
        1.22108        0.349344         0.31233 
         1.2272        0.346199        0.308688 
        1.23334        0.341857        0.305095 
        1.23949        0.338246        0.301551 
        1.24562          0.3346        0.298074 
        1.25174        0.331744        0.294657 
        1.25789        0.328474        0.291284 
        1.26402        0.324182         0.28797 
        1.27014        0.321364        0.284715 
        1.27628        0.318472        0.281502 
        1.28244        0.314131        0.278332 
        1.28858        0.311445        0.275215 
        1.29471        0.309139        0.272154 
        1.30084        0.304955        0.269142 
        1.30697        0.302446        0.266171 
        1.31312        0.298188        0.263241 
        1.31925        0.296129        0.260365 
        1.32537        0.293596        0.257535 
        1.33151        0.290892        0.254736 
        1.33765         0.28822        0.251982 
        1.34378        0.284957        0.249273 
        1.34992        0.282613        0.246602 
        1.35606        0.279648        0.243965 
         1.3622        0.277283        0.241372 
        1.36833        0.274672        0.238822 
        1.37445        0.271259        0.236311 
        1.38059        0.269234        0.233828 
        1.38675        0.267689        0.231375 
        1.39288        0.264985        0.228967 
        1.39901        0.262468        0.226594 
        1.40515        0.260533         0.22425 
         1.4113        0.257563         0.22194 
        1.41742        0.255577        0.219672 
        1.42355        0.253827        0.217431 
         1.4297         0.25124        0.215215 
        1.43585        0.249011        0.213031 
        1.44198        0.247575        0.210885 
        1.44809        0.245187        0.208774 
        1.45423        0.243059        0.206683 
        1.46036         0.24092        0.204625 
        1.46649        0.239857        0.202595 
        1.47263        0.237285         0.20059 
        1.47877        0.234996        0.198613 
        1.48491        0.233562        0.196661 
        1.49104        0.231281        0.194738 
        1.49718        0.229549         0.19284 
        1.50333        0.228251        0.190964 
        1.50947        0.226378        0.189117 
         1.5156        0.224383        0.187298 
        1.52172        0.222889        0.185502 
        1.52787        0.220998        0.183726 
          1.534        0.219426        0.181976 
        1.54013        0.217832         0.18025 
        1.54627        0.216967        0.178544 
        1.55241        0.214609         0.17686 
        1.55855        0.212747        0.175199 
        1.56467        0.212274        0.173565 
         1.5708        0.210101        0.171947 
        1.57695        0.207675        0.170347 
        1.58308        0.206394        0.168772 
        1.58922        0.204896        0.167215 
        1.59535        0.203274        0.165679 
         1.6015        0.202078        0.164159 
        1.60764        0.200822         0.16266 
        1.61376        0.198851        0.161184 
        1.61989        0.198039        0.159724 
        1.62604        0.197209         0.15828 
        1.63218        0.196038        0.156854 
        1.63831        0.194658         0.15545 
        1.64444        0.193802        0.154062 
        1.65059        0.192461        0.152688 
        1.65673        0.191616        0.151332 
        1.66285        0.191273        0.149996 
        1.66898        0.190025        0.148676 
        1.67512         0.18911         0.14737 
        1.68127        0.188307        0.146078 
         1.6874        0.187791        0.144804 
        1.69353        0.186643        0.143547 
        1.69967        0.186771        0.142301 
        1.70581        0.185695        0.141071 
        1.71193        0.185058         0.13986 
        1.71806        0.184431         0.13866 
        1.72421        0.184794        0.137472 
        1.73035        0.184413          0.1363 
        1.73649        0.183747        0.135141 
        1.74262        0.183669        0.133997 
        1.74876        0.183514        0.132866 
        1.75489        0.183341         0.13175 
        1.76101        0.183389        0.130647 
        1.76715        0.183037        0.129555 
        1.77329        0.183267        0.128474 
        1.77943        0.182758        0.127406 
        1.78557        0.183529        0.126351 
        1.79171        0.183733        0.125308 
        1.79785        0.184318        0.124276 
        1.80399        0.184386        0.123256 
        1.81012        0.184998         0.12225 
        1.81625        0.185407        0.121254 
        1.82239        0.185661        0.120269 
        1.82853         0.18635        0.119295 
        1.83466         0.18661        0.118333 
        1.84078        0.187562        0.117382 
        1.84692        0.187678         0.11644 
        1.85306        0.189381        0.115508 
         1.8592        0.190263        0.114587 
        1.86533        0.191343        0.113677 
        1.87147          0.1919        0.112776 
        1.87761        0.193374        0.111884 
        1.88375        0.194125        0.111003 
        1.88988        0.195544        0.110132 
        1.89601        0.197225         0.10927 
        1.90215        0.197796        0.108416 
        1.90829        0.199272        0.107573 
        1.91442        0.201531        0.106738 
        1.92056        0.203352        0.105912 
         1.9267        0.204753        0.105095 
        1.93284        0.206065        0.104286 
        1.93897        0.208164        0.103487 
        1.94509        0.210523        0.102697 
        1.95123        0.211561        0.101915 
        1.95737        0.214397        0.101139 
        1.96349        0.217294        0.100374 
        1.96964        0.218803       0.0996147 
        1.97578        0.220899       0.0988628 
        1.98192        0.223868       0.0981202 
        1.98805        0.226623       0.0973851 
        1.99419        0.228746       0.0966576 
        2.00033        0.232259       0.0959371 
        2.00647        0.234832       0.0952242 
         2.0126         0.23783       0.0945198 
        2.01874        0.240812       0.0938215 
        2.02488        0.242673       0.0931296 
        2.03101        0.247428        0.092446 
        2.03714        0.250895       0.0917699 
        2.04328        0.253977       0.0910998 
        2.04941        0.257729        0.090437 
        2.05554        0.262062       0.0897812 
        2.06167        0.265202       0.0891311 
        2.06781        0.269274       0.0884874 
        2.07396        0.272258       0.0878491 
        2.08009        0.277613       0.0872182 
        2.08622        0.281927       0.0865942 
        2.09237        0.285521       0.0859752 
        2.09851        0.291605        0.085362 
        2.10464        0.295502       0.0847559 
        2.11077        0.299489       0.0841564 
        2.11691        0.306666       0.0835614 
        2.12305        0.311432       0.0829721 
        2.12918        0.315695       0.0823899 
        2.13531        0.322554       0.0818133 
        2.14145        0.327061       0.0812408 
         2.1476        0.333502       0.0806732 
        2.15372        0.338651       0.0801138 
        2.15985        0.343988       0.0795591 
        2.16599        0.350846       0.0790082 
        2.17213        0.359437        0.078463 
        2.17827        0.364741       0.0779231 
         2.1844        0.372005       0.0773888 
        2.19054        0.380554       0.0768593 
        2.19666        0.387548       0.0763356 
         2.2028        0.394188       0.0758162 
        2.20893        0.402519       0.0753015 
        2.21508          0.4093       0.0747909 
        2.22122        0.420754       0.0742849 
        2.22736        0.425756       0.0737847 
        2.23349        0.435809       0.0732892 
        2.23962        0.443441        0.072798 
        2.24577        0.453621       0.0723109 
         2.2519        0.464225       0.0718289 
        2.25802        0.473231       0.0713521 
        2.26417        0.483153       0.0708783 
        2.27031        0.493138       0.0704084 
        2.27644        0.502551       0.0699441 
        2.28257        0.513411        0.069484 
        2.28872        0.524052       0.0690272 
        2.29486        0.536818       0.0685747 
        2.30099         0.55144       0.0681271 
        2.30712        0.562823       0.0676833 
        2.31326        0.576632       0.0672427 
         2.3194         0.59069       0.0668063 
        2.32553        0.600528       0.0663746 
        2.33166        0.614879       0.0659468 
         2.3378        0.629773       0.0655222 
        2.34394        0.646683       0.0651013 
        2.35007        0.656744       0.0646846 
        2.35619        0.677259       0.0642721 
        2.36233        0.691625       0.0638622 
        2.36848        0.707769        0.063455 
        2.37462        0.722743       0.0630523 
        2.38075        0.742919       0.0626534 
        2.38689        0.759706       0.0622576 
        2.39303        0.776095       0.0618654 
        2.39916        0.796328       0.0614769 
        2.40529        0.818943       0.0610918 
        2.41143        0.833476       0.0607097 
        2.41757        0.859123       0.0603307 
         2.4237         0.88403       0.0599556 
        2.42983        0.897873       0.0595838 
        2.43598        0.921105       0.0592141 
        2.44211        0.947048       0.0588482 
        2.44823          0.9653       0.0584861 
        2.45437        0.995336       0.0581262 
        2.46052         1.02114        0.057769 
        2.46665         1.04809       0.0574154 
        2.47279         1.07212       0.0570649 
        2.47892         1.09989       0.0567171 
        2.48507         1.13161       0.0563718 
         2.4912         1.15728       0.0560301 
