# k  (h/Mpc)    Pcb(k)  (Mpc/h)^3    Pcb_linear(k)  (Mpc/h)^3
     0.00783031         10520.5         10595.4 
       0.013688         13060.6         13022.2 
       0.019231         13096.3         13114.4 
      0.0249154         11871.9         12053.3 
      0.0312784         10293.1         10371.4 
      0.0375637         8781.89         8792.65 
      0.0433917         7528.99         7643.09 
      0.0492413         6795.18         6822.94 
      0.0555754          6056.9         6223.66 
      0.0619321         5797.62         5782.95 
       0.067871          5270.7         5399.32 
      0.0738098         4860.77         4975.68 
      0.0800417         4341.72         4476.44 
      0.0862327         3899.69          3961.7 
      0.0921407         3501.71         3504.72 
      0.0982031         3097.49         3112.89 
       0.104506         2882.13         2807.56 
       0.110769         2671.55         2598.98 
       0.116806         2509.84         2461.19 
       0.122832         2401.61         2352.82 
       0.129052         2245.25         2240.67 
       0.135211         2128.64         2110.23 
       0.141259         2017.79         1960.51 
       0.147318         1883.74         1799.21 
       0.153489         1714.85         1639.85 
       0.159709          1603.8         1499.71 
       0.165845         1530.64         1389.95 
       0.171974         1438.47         1308.73 
       0.178125         1375.42         1249.36 
       0.184229          1327.1         1202.61 
        0.19034         1249.07         1158.08 
       0.196428         1225.88         1108.97 
       0.202534         1181.01         1052.33 
       0.208729         1120.11         989.149 
       0.214876         1059.98         925.455 
       0.220989         1021.29         866.308 
       0.227147         970.125         814.812 
        0.23329          929.09         772.985 
       0.239377         910.338         740.028 
       0.245482         851.363         712.928 
       0.251667         846.995         688.346 
       0.257832         819.002         663.837 
       0.263955         790.463         637.831 
       0.270079         761.691         609.927 
        0.27624         752.136         580.864 
       0.282372         719.907         552.524 
        0.28843         705.284         526.535 
       0.294538          670.42         503.317 
       0.300721         665.563         483.083 
        0.30691         636.461         465.639 
       0.313033         625.285         450.267 
       0.319153         606.281         435.779 
       0.325316         589.178          421.29 
        0.33145          572.64         406.566 
       0.337538         566.081         391.665 
       0.343633         548.255         376.791 
       0.349808         529.789         362.225 
       0.355968         525.452         348.637 
       0.362074         515.463         336.305 
       0.368217         501.929         325.092 
       0.374374         481.907         314.843 
       0.380519         478.889         305.318 
       0.386598         467.301         296.307 
       0.392688          464.41          287.44 
        0.39888          450.98         278.505 
       0.405048         442.596         269.695 
       0.411186         434.587         261.101 
       0.417313         425.703         252.846 
       0.423458          419.28         244.998 
       0.429607         410.786         237.619 
       0.435692         400.608         230.796 
       0.441815         398.003         224.343 
       0.447964         389.856         218.176 
       0.454126          378.92         212.226 
       0.460267         373.822         206.466 
       0.466387         369.272          200.85 
        0.47254         361.576         195.325 
       0.478662         360.554         189.987 
       0.484765         349.128         184.857 
       0.490885         345.603         179.924 
       0.497035         339.781         175.187 
       0.503198         333.719         170.666 
       0.509342         331.393         166.364 
       0.515458         326.901         162.249 
       0.521598         320.826         158.252 
       0.527764         315.249         154.356 
       0.533884         312.917           150.6 
           0.54         308.193         146.954 
       0.546137         307.098         143.402 
       0.552299         300.766         139.946 
       0.558452         298.318         136.614 
       0.564573         293.559         133.423 
       0.570708         288.321         130.344 
       0.576825         283.629         127.385 
       0.582926         281.073          124.53 
       0.589034         278.514         121.757 
       0.595184         275.794         119.046 
       0.601379         272.438         116.393 
       0.607522         267.786          113.84 
       0.613639         266.223         111.373 
       0.619772         260.086         108.973 
       0.625918         258.936         106.641 
       0.632068         255.133         104.378 
       0.638161         253.838         102.202 
         0.6443         249.706         100.074 
       0.650464         247.421         98.0014 
       0.656582         245.681         96.0041 
       0.662703         243.719         94.0632 
       0.668861         239.225         92.1657 
       0.675024         236.716         90.3194 
       0.681124           235.6          88.542 
       0.687237          232.48         86.8086 
       0.693381             229         85.1132 
       0.699536          227.17           83.46 
       0.705665         225.897         81.8581 
       0.711789         222.705            80.3 
       0.717957         221.752         78.7723 
        0.72409         218.924         77.2936 
       0.730186         216.437         75.8624 
       0.736317         214.264         74.4603 
       0.742472         213.106          73.089 
       0.748622         211.188          71.754 
        0.75476         209.336         70.4555 
       0.760888         206.533         69.1915 
       0.767043         205.955         67.9537 
       0.773185         203.548          66.749 
       0.779291         199.978         65.5805 
       0.785407         199.452         64.4386 
       0.791564         197.597         63.3168 
       0.797719         194.807         62.2226 
       0.803834         194.016         61.1613 
       0.809972         192.311         60.1212 
       0.816124         192.253         59.1033 
       0.822261         189.432         58.1118 
       0.828378         187.747         57.1462 
       0.834502         187.298         56.2019 
       0.840667         184.243         55.2731 
       0.846816          182.78          54.368 
       0.852925         181.813          53.489 
       0.859047         180.091         52.6279 
       0.865192         178.645          51.783 
       0.871341         176.898         50.9562 
       0.877463         175.358         50.1514 
       0.883569         174.468         49.3661 
       0.889708         172.929         48.5938 
       0.895864         170.951         47.8361 
       0.902008         170.064         47.0963 
       0.908149         169.271         46.3727 
       0.914301         167.331         45.6632 
       0.920448         165.963         44.9694 
       0.926574         164.937         44.2925 
       0.932687          164.57         43.6311 
       0.938823         162.452         42.9809 
       0.944975         160.706         42.3426 
       0.951105         160.012         41.7196 
       0.957225         158.413         41.1103 
       0.963368         156.746         40.5112 
       0.969511         156.466         39.9241 
       0.975621         155.126         39.3518 
       0.981748         154.548         38.7894 
       0.987916         152.939         38.2345 
        0.99406         151.575         37.6926 
        1.00019         151.246         37.1624 
        1.00632         149.585         36.6429 
        1.01246         148.774         36.1326 
        1.01859          147.76         35.6329 
        1.02471          146.61         35.1434 
        1.03085         144.859         34.6615 
        1.03698         144.268         34.1896 
        1.04314         143.034         33.7246 
        1.04929         142.125         33.2694 
        1.05541         141.253         32.8245 
        1.06154         140.373         32.3867 
        1.06769         140.198         31.9563 
        1.07382             139         31.5351 
        1.07993         137.711         31.1225 
        1.08607         136.698         30.7156 
        1.09222         136.002         30.3156 
        1.09836          134.76         29.9233 
        1.10449         133.594         29.5383 
        1.11063         132.666         29.1598 
        1.11677         132.296         28.7881 
         1.1229         130.735         28.4235 
        1.12903         130.004          28.065 
        1.13518         129.693         27.7124 
        1.14131         128.641          27.366 
        1.14745         127.747         27.0258 
        1.15359         126.961         26.6914 
        1.15973         126.494         26.3625 
        1.16584         125.031         26.0407 
        1.17197         124.381         25.7238 
        1.17811         123.645         25.4113 
        1.18424         122.795         25.1048 
        1.19038         122.434         24.8026 
        1.19652         121.565         24.5055 
        1.20267         120.735         24.2132 
        1.20881         119.881         23.9258 
        1.21495           119.1         23.6436 
        1.22108         118.363         23.3659 
         1.2272         117.382         23.0934 
        1.23334          116.78         22.8247 
        1.23949         115.776         22.5596 
        1.24562         115.313         22.2994 
        1.25174         114.151         22.0438 
        1.25789         113.795         21.7914 
        1.26402          113.01         21.5435 
        1.27014         112.066            21.3 
        1.27628         111.637         21.0596 
        1.28244         111.123         20.8225 
        1.28858         110.548         20.5893 
        1.29471         109.337         20.3603 
        1.30084         109.047          20.135 
        1.30697         108.257         19.9127 
        1.31312         107.874         19.6935 
        1.31925         106.878         19.4783 
        1.32537         106.498         19.2666 
        1.33151          105.43         19.0573 
        1.33765         105.004         18.8512 
        1.34378         104.439         18.6485 
        1.34992         103.969         18.4487 
        1.35606         103.259         18.2515 
         1.3622          102.49         18.0574 
        1.36833         102.003         17.8667 
        1.37445         101.294         17.6788 
        1.38059          100.85          17.493 
        1.38675         100.027         17.3095 
        1.39288         99.5675         17.1294 
        1.39901          99.242         16.9519 
        1.40515         98.5586         16.7765 
         1.4113         97.6842         16.6037 
        1.41742         97.5084          16.434 
        1.42355         96.7076         16.2664 
         1.4297         96.2579         16.1006 
        1.43585         95.4814         15.9372 
        1.44198         95.0676         15.7767 
        1.44809         94.4856         15.6187 
        1.45423         93.9345         15.4623 
        1.46036         93.5764         15.3083 
        1.46649         93.0222         15.1564 
        1.47263         92.6067         15.0065 
        1.47877         92.1271         14.8586 
        1.48491         91.3151         14.7125 
        1.49104         90.8719         14.5687 
        1.49718         90.2627         14.4267 
        1.50333         89.7833         14.2864 
        1.50947         89.4415         14.1482 
         1.5156         88.8655         14.0121 
        1.52172         88.3935         13.8777 
        1.52787         88.1595         13.7449 
          1.534         87.4375         13.6139 
        1.54013         86.7856         13.4848 
        1.54627         86.5113         13.3572 
        1.55241         86.0952         13.2312 
        1.55855         85.5399          13.107 
        1.56467         85.1393         12.9847 
         1.5708         84.6129         12.8636 
        1.57695         84.5312          12.744 
        1.58308          83.521         12.6261 
        1.58922         83.5099         12.5096 
        1.59535         83.0811         12.3947 
         1.6015         82.4151          12.281 
        1.60764         82.0513         12.1689 
        1.61376         81.6948         12.0584 
        1.61989         81.0535         11.9492 
        1.62604           80.69         11.8412 
        1.63218         80.4002         11.7345 
        1.63831         79.7561         11.6295 
        1.64444         79.3574         11.5256 
        1.65059         78.9668         11.4228 
        1.65673         78.4629         11.3214 
        1.66285          78.221         11.2215 
        1.66898         77.6656         11.1227 
        1.67512         77.3626          11.025 
        1.68127         76.8555         10.9283 
         1.6874         76.4894          10.833 
        1.69353         76.1332          10.739 
        1.69967         75.4666         10.6458 
        1.70581         75.4722         10.5537 
        1.71193         75.1241         10.4631 
        1.71806         74.4054         10.3734 
        1.72421         74.2602         10.2845 
        1.73035          73.609         10.1968 
        1.73649         73.3599         10.1102 
        1.74262         72.9405         10.0246 
        1.74876         72.7656         9.93991 
        1.75489         72.0431         9.85641 
        1.76101         71.8803          9.7739 
        1.76715         71.4439         9.69222 
        1.77329         71.1416         9.61138 
        1.77943         70.7793         9.53143 
        1.78557         70.4825         9.45251 
        1.79171         69.9618         9.37447 
        1.79785         69.6864          9.2973 
        1.80399         69.4446         9.22101 
        1.81012         69.0476         9.14569 
        1.81625         68.6212         9.07124 
        1.82239         68.3658         8.99752 
        1.82853         68.0302         8.92465 
        1.83466         67.6438         8.85266 
        1.84078         67.3806         8.78155 
        1.84692          66.852          8.7111 
        1.85306          66.521         8.64134 
         1.8592         66.0822         8.57246 
        1.86533          65.898         8.50437 
        1.87147         65.3895         8.43693 
        1.87761         65.2118         8.37021 
        1.88375         64.8779         8.30428 
        1.88988          64.693         8.23914 
        1.89601         64.2791         8.17466 
        1.90215         63.9326         8.11081 
        1.90829         63.6307         8.04769 
        1.91442         63.2295         7.98522 
        1.92056          62.901         7.92348 
         1.9267         62.7196         7.86233 
        1.93284         62.2639         7.80178 
        1.93897         61.8561         7.74199 
        1.94509         61.5664         7.68296 
        1.95123         61.4276         7.62439 
        1.95737          61.144          7.5664 
        1.96349         60.7213         7.50915 
        1.96964         60.4387         7.45234 
        1.97578         60.1542         7.39609 
        1.98192         59.9428         7.34053 
        1.98805         59.7383         7.28554 
        1.99419         59.2859         7.23111 
        2.00033         58.9821         7.17721 
        2.00647         58.8425         7.12388 
         2.0126         58.2555         7.07118 
        2.01874         58.1013         7.01894 
        2.02488         57.8096         6.96718 
        2.03101         57.6647         6.91603 
        2.03714         57.2166         6.86545 
        2.04328          56.969         6.81532 
        2.04941         56.6103         6.76574 
        2.05554         56.3416         6.71668 
        2.06167         56.1615         6.66804 
        2.06781         55.9012         6.61988 
        2.07396         55.5936         6.57213 
        2.08009         55.3087         6.52493 
        2.08622         55.0549         6.47825 
        2.09237         54.7417         6.43194 
        2.09851         54.5568         6.38607 
        2.10464         54.2273         6.34073 
        2.11077         53.9319         6.29588 
        2.11691         53.6913         6.25137 
        2.12305         53.4277         6.20728 
        2.12918          53.156         6.16372 
        2.13531         52.7953         6.12058 
        2.14145         52.6812         6.07776 
         2.1476         52.4877         6.03529 
        2.15372         52.2191         5.99344 
        2.15985         51.8909         5.95195 
        2.16599         51.6245         5.91073 
        2.17213         51.4386         5.86995 
        2.17827         51.1215         5.82956 
         2.1844         50.8427         5.78958 
        2.19054         50.6754         5.74997 
        2.19666         50.4175         5.71079 
         2.2028         50.2294         5.67194 
        2.20893         49.9978         5.63343 
        2.21508         49.6588         5.59523 
        2.22122          49.394         5.55738 
        2.22736         49.3047         5.51995 
        2.23349         48.9758         5.48288 
        2.23962         48.7584         5.44614 
        2.24577         48.5133         5.40969 
         2.2519         48.2474         5.37364 
        2.25802         48.0548         5.33797 
        2.26417         47.8248         5.30252 
        2.27031         47.6149         5.26736 
        2.27644         47.4843         5.23263 
        2.28257         47.1556         5.19821 
        2.28872         46.9317         5.16404 
        2.29486         46.7174         5.13018 
        2.30099         46.5752          5.0967 
        2.30712         46.2899          5.0635 
        2.31326         46.0596         5.03054 
         2.3194         45.7744         4.99789 
        2.32553         45.5068         4.96559 
        2.33166         45.3553         4.93359 
         2.3378         45.1282         4.90182 
        2.34394         44.9102         4.87033 
        2.35007         44.5989         4.83916 
        2.35619         44.5877          4.8083 
        2.36233         44.4051         4.77763 
        2.36848         44.0536         4.74717 
        2.37462         43.9376         4.71704 
        2.38075         43.7302          4.6872 
        2.38689         43.5368         4.65759 
        2.39303         43.3788         4.62825 
        2.39916         43.1966         4.59919 
        2.40529         42.8785         4.57037 
        2.41143         42.6864         4.54179 
        2.41757         42.4872         4.51343 
         2.4237         42.3792         4.48538 
        2.42983         42.1597         4.45756 
        2.43598         41.9279          4.4299 
        2.44211         41.7827         4.40253 
        2.44823         41.5064         4.37544 
        2.45437         41.4386         4.34851 
        2.46052         41.1408         4.32179 
        2.46665         41.0614         4.29534 
        2.47279         40.8862         4.26911 
        2.47892         40.6833         4.24309 
        2.48507         40.4641         4.21727 
         2.4912         40.3636          4.1917 
