# k  (h/Mpc)    Pcb(k)  (Mpc/h)^3    Pcb_linear(k)  (Mpc/h)^3
     0.00783031         18205.1         18368.5 
       0.013688         22708.2         22569.2 
       0.019231         22685.2         22725.3 
      0.0249154         20423.9         20884.1 
      0.0312784           17726         17968.2 
      0.0375637         15160.1         15232.1 
      0.0433917           12926           13240 
      0.0492413         11696.4         11818.9 
      0.0555754         10347.2         10780.5 
      0.0619321         9974.24         10016.9 
       0.067871         8996.43         9352.21 
      0.0738098         8301.29         8618.29 
      0.0800417         7391.98         7753.48 
      0.0862327         6671.26         6861.85 
      0.0921407         6038.59         6070.29 
      0.0982031         5352.56         5391.59 
       0.104506         5021.63         4862.73 
       0.110769         4657.04         4501.44 
       0.116806         4391.47         4262.76 
       0.122832         4181.31         4075.06 
       0.129052         3891.62          3880.8 
       0.135211          3693.1         3654.87 
       0.141259         3526.38         3395.56 
       0.147318         3314.04         3116.18 
       0.153489         3023.61         2840.16 
       0.159709          2846.2         2597.45 
       0.165845         2743.16         2407.34 
       0.171974         2594.81         2266.66 
       0.178125         2473.61         2163.84 
       0.184229         2373.42         2082.87 
        0.19034         2257.44         2005.75 
       0.196428          2208.4         1920.67 
       0.202534         2120.11         1822.58 
       0.208729         2027.94         1713.15 
       0.214876         1945.61         1602.84 
       0.220989         1879.02          1500.4 
       0.227147         1804.54         1411.21 
        0.23329         1731.28         1338.76 
       0.239377         1706.61         1281.68 
       0.245482         1603.69         1234.75 
       0.251667         1598.93         1192.17 
       0.257832         1540.21         1149.72 
       0.263955         1488.06         1104.68 
       0.270079            1438         1056.36 
        0.27624         1420.88         1006.02 
       0.282372         1363.04         956.936 
        0.28843         1358.69         911.923 
       0.294538         1292.52         871.712 
       0.300721         1282.82         836.668 
        0.30691         1238.19         806.456 
       0.313033         1214.29         779.831 
       0.319153         1193.28         754.739 
       0.325316         1156.29         729.646 
        0.33145         1131.76         704.144 
       0.337538         1111.78         678.336 
       0.343633         1089.06         652.576 
       0.349808         1053.44         627.349 
       0.355968         1045.27         603.815 
       0.362074         1036.33         582.457 
       0.368217         1003.49         563.037 
       0.374374         968.868         545.286 
       0.380519         970.217         528.789 
       0.386598         942.857         513.182 
       0.392688         939.357         497.826 
        0.39888         912.308         482.351 
       0.405048         903.457         467.092 
       0.411186         891.096         452.208 
       0.417313         870.741          437.91 
       0.423458         856.857         424.319 
       0.429607         846.226          411.54 
       0.435692         829.962         399.722 
       0.441815         823.149         388.547 
       0.447964         805.686         377.865 
       0.454126         800.449         367.559 
       0.460267         780.013         357.585 
       0.466387         770.147         347.857 
        0.47254         767.171         338.288 
       0.478662         757.316         329.043 
       0.484765         736.611         320.159 
       0.490885         732.121         311.615 
       0.497035         716.336          303.41 
       0.503198         712.424         295.581 
       0.509342         704.586         288.131 
       0.515458         700.842         281.004 
       0.521598         683.395         274.082 
       0.527764          671.53         267.333 
       0.533884         669.458         260.828 
           0.54          662.73         254.514 
       0.546137         655.975         248.361 
       0.552299         648.564         242.376 
       0.558452         642.423         236.606 
       0.564573         634.971         231.078 
       0.570708         627.032         225.746 
       0.576825         610.851          220.62 
       0.582926         613.061         215.676 
       0.589034          607.43         210.874 
       0.595184         601.872         206.178 
       0.601379         593.702         201.584 
       0.607522         584.169         197.162 
       0.613639         583.978         192.889 
       0.619772         571.425         188.733 
       0.625918         568.079         184.694 
       0.632068         560.679         180.774 
       0.638161         557.936         177.005 
         0.6443         548.755         173.321 
       0.650464         546.645         169.731 
       0.656582         541.499         166.272 
       0.662703         539.448          162.91 
       0.668861         530.551         159.624 
       0.675024         525.949         156.426 
       0.681124         522.001         153.348 
       0.687237         517.948         150.346 
       0.693381         511.489          147.41 
       0.699536         501.975         144.546 
       0.705665         501.231         141.772 
       0.711789         498.824         139.073 
       0.717957         493.826         136.428 
        0.72409         491.163         133.867 
       0.730186         483.725         131.388 
       0.736317         480.014          128.96 
       0.742472         477.824         126.585 
       0.748622          472.38         124.272 
        0.75476         465.148         122.024 
       0.760888         461.215         119.834 
       0.767043         460.392         117.691 
       0.773185         455.872         115.604 
       0.779291         450.768          113.58 
       0.785407         447.758         111.603 
       0.791564         442.584          109.66 
       0.797719         440.883         107.765 
       0.803834         435.551         105.927 
       0.809972         433.338         104.125 
       0.816124         432.251         102.362 
       0.822261         426.205         100.645 
       0.828378         424.227         98.9728 
       0.834502           418.9         97.3374 
       0.840667         415.083         95.7287 
       0.846816         413.148         94.1612 
       0.852925         409.965         92.6389 
       0.859047         407.329         91.1474 
       0.865192         402.514         89.6841 
       0.871341         398.972         88.2522 
       0.877463         397.939         86.8583 
       0.883569          393.92         85.4983 
       0.889708         391.471         84.1607 
       0.895864         390.118         82.8484 
       0.902008         385.889         81.5671 
       0.908149          380.73         80.3139 
       0.914301         378.568         79.0852 
       0.920448         376.574         77.8835 
       0.926574         370.319         76.7112 
       0.932687         369.983         75.5656 
       0.938823         366.668         74.4396 
       0.944975         365.352          73.334 
       0.951105         361.112         72.2551 
       0.957225         358.898         71.1999 
       0.963368         354.824         70.1623 
       0.969511         353.717         69.1454 
       0.975621         350.648         68.1543 
       0.981748          348.92         67.1803 
       0.987916         346.926         66.2192 
        0.99406         340.867         65.2807 
        1.00019         339.119         64.3623 
        1.00632         337.409         63.4626 
        1.01246         334.535         62.5789 
        1.01859          334.36         61.7135 
        1.02471         329.181         60.8657 
        1.03085          328.26          60.031 
        1.03698         325.998         59.2138 
        1.04314         322.641         58.4085 
        1.04929         319.139         57.6201 
        1.05541         319.767         56.8495 
        1.06154         314.341         56.0913 
        1.06769         313.058         55.3458 
        1.07382         310.614         54.6163 
        1.07993         308.655         53.9017 
        1.08607         307.258          53.197 
        1.09222         304.384         52.5043 
        1.09836         302.117         51.8248 
        1.10449         299.712         51.1581 
        1.11063         295.811         50.5025 
        1.11677         296.029         49.8587 
         1.1229         293.557         49.2273 
        1.12903         290.944         48.6063 
        1.13518         288.304         47.9956 
        1.14131         286.539         47.3958 
        1.14745         284.753         46.8067 
        1.15359         282.769         46.2275 
        1.15973         281.388         45.6579 
        1.16584         278.258         45.1005 
        1.17197         278.325         44.5517 
        1.17811         274.305         44.0103 
        1.18424         272.601         43.4796 
        1.19038         271.554         42.9562 
        1.19652         268.778         42.4416 
        1.20267         267.692         41.9354 
        1.20881         265.704         41.4377 
        1.21495         263.306         40.9489 
        1.22108         261.553          40.468 
         1.2272         259.763          39.996 
        1.23334         258.129         39.5306 
        1.23949         255.703         39.0714 
        1.24562         254.762         38.6209 
        1.25174          252.58         38.1782 
        1.25789         250.428         37.7411 
        1.26402         248.461         37.3116 
        1.27014         246.725           36.89 
        1.27628         245.085         36.4736 
        1.28244         244.948         36.0629 
        1.28858         242.119         35.6591 
        1.29471         240.695         35.2624 
        1.30084         238.195         34.8722 
        1.30697         237.143         34.4873 
        1.31312         234.661         34.1076 
        1.31925         233.308          33.735 
        1.32537         232.352         33.3682 
        1.33151         230.508         33.0057 
        1.33765         227.937         32.6487 
        1.34378         226.963         32.2978 
        1.34992         225.766         31.9518 
        1.35606         224.557         31.6101 
         1.3622         222.574          31.274 
        1.36833          220.78         30.9437 
        1.37445         219.497         30.6183 
        1.38059         217.425         30.2966 
        1.38675         216.211         29.9787 
        1.39288          214.95         29.6668 
        1.39901         213.894         29.3594 
        1.40515         212.056         29.0556 
         1.4113         210.715         28.7564 
        1.41742         208.889         28.4625 
        1.42355         207.443         28.1721 
         1.4297         205.997          27.885 
        1.43585         204.775          27.602 
        1.44198         203.909          27.324 
        1.44809         201.898         27.0504 
        1.45423         200.761         26.7795 
        1.46036         199.562         26.5129 
        1.46649         197.724         26.2498 
        1.47263         196.793           25.99 
        1.47877         194.915         25.7339 
        1.48491         193.248         25.4809 
        1.49104         192.361         25.2318 
        1.49718         190.699         24.9859 
        1.50333         190.021         24.7429 
        1.50947         188.658         24.5036 
         1.5156           186.9         24.2678 
        1.52172         185.791         24.0351 
        1.52787         184.115          23.805 
          1.534         183.785         23.5782 
        1.54013         182.025         23.3547 
        1.54627         181.049         23.1336 
        1.55241         179.372         22.9153 
        1.55855         177.751         22.7002 
        1.56467         176.995         22.4885 
         1.5708         176.017         22.2788 
        1.57695         174.744         22.0715 
        1.58308         173.165         21.8674 
        1.58922         172.008         21.6657 
        1.59535         170.665         21.4666 
         1.6015         170.308         21.2698 
        1.60764         168.588         21.0755 
        1.61376         168.101         20.8842 
        1.61989         166.554         20.6952 
        1.62604         164.948          20.508 
        1.63218         164.621         20.3233 
        1.63831           163.1         20.1413 
        1.64444         161.992         19.9615 
        1.65059         161.028         19.7834 
        1.65673         159.937         19.6077 
        1.66285         158.532         19.4347 
        1.66898         157.707         19.2637 
        1.67512         156.851         19.0944 
        1.68127         155.063          18.927 
         1.6874          154.44          18.762 
        1.69353         153.382          18.599 
        1.69967         152.062         18.4376 
        1.70581         151.274         18.2782 
        1.71193         150.268         18.1213 
        1.71806         149.459         17.9659 
        1.72421         148.111          17.812 
        1.73035         147.439         17.6601 
        1.73649         146.479           17.51 
        1.74262         145.466         17.3618 
        1.74876         144.375         17.2151 
        1.75489         143.305         17.0705 
        1.76101         141.859         16.9276 
        1.76715         141.481         16.7862 
        1.77329         140.327         16.6462 
        1.77943         139.686         16.5077 
        1.78557         138.671          16.371 
        1.79171         137.877         16.2358 
        1.79785         136.582         16.1022 
        1.80399         135.714         15.9701 
        1.81012         134.971         15.8396 
        1.81625         134.378         15.7107 
        1.82239         133.257          15.583 
        1.82853         132.557         15.4568 
        1.83466         131.547         15.3321 
        1.84078         130.977          15.209 
        1.84692         129.327         15.0869 
        1.85306         128.917         14.9661 
         1.8592          127.94         14.8468 
        1.86533         127.385         14.7289 
        1.87147         126.334         14.6121 
        1.87761         125.294         14.4965 
        1.88375         124.438         14.3824 
        1.88988         123.492         14.2695 
        1.89601         122.963         14.1579 
        1.90215         122.239         14.0473 
        1.90829         121.083          13.938 
        1.91442         120.476         13.8298 
        1.92056         119.835         13.7228 
         1.9267         118.901         13.6169 
        1.93284         117.916         13.5121 
        1.93897         117.447         13.4085 
        1.94509         116.693         13.3063 
        1.95123          115.92         13.2049 
        1.95737         115.194         13.1044 
        1.96349         114.467         13.0053 
        1.96964         113.472         12.9069 
        1.97578         112.854         12.8094 
        1.98192         112.101         12.7132 
        1.98805         111.291          12.618 
        1.99419         110.597         12.5237 
        2.00033         110.068         12.4304 
        2.00647         109.349          12.338 
         2.0126         108.535         12.2467 
        2.01874          107.84         12.1562 
        2.02488          107.23         12.0666 
        2.03101         106.284          11.978 
        2.03714         105.717         11.8904 
        2.04328         104.901         11.8036 
        2.04941         104.356         11.7177 
        2.05554         103.437         11.6328 
        2.06167         103.025         11.5485 
        2.06781         102.254         11.4651 
        2.07396         101.686         11.3824 
        2.08009         101.093         11.3007 
        2.08622         100.388         11.2198 
        2.09237         99.6945         11.1396 
        2.09851         99.2417         11.0602 
        2.10464         98.5646         10.9816 
        2.11077         97.9205          10.904 
        2.11691         97.5069         10.8269 
        2.12305         96.6758         10.7505 
        2.12918         96.0465         10.6751 
        2.13531         95.4118         10.6004 
        2.14145         94.7914         10.5262 
         2.1476         94.0773         10.4526 
        2.15372         93.7019         10.3802 
        2.15985         93.1855         10.3083 
        2.16599         92.4446         10.2369 
        2.17213          91.864         10.1663 
        2.17827         91.3278         10.0963 
         2.1844         90.5911         10.0271 
        2.19054         90.1403          9.9585 
        2.19666         89.5176         9.89064 
         2.2028         89.0379         9.82335 
        2.20893         88.5871         9.75665 
        2.21508         87.8335          9.6905 
        2.22122         87.2223         9.62494 
        2.22736          86.879         9.56013 
        2.23349          86.438         9.49592 
        2.23962          85.792         9.43228 
        2.24577         85.2539         9.36916 
         2.2519          84.669         9.30672 
        2.25802         84.1134         9.24494 
        2.26417         83.8514         9.18355 
        2.27031          83.128         9.12266 
        2.27644          82.698          9.0625 
        2.28257         82.0976          9.0029 
        2.28872         81.6006         8.94371 
        2.29486          81.184         8.88507 
        2.30099         80.6258         8.82708 
        2.30712         80.2132         8.76958 
        2.31326         79.6006          8.7125 
         2.3194         79.1629         8.65595 
        2.32553         78.8711         8.60001 
        2.33166         78.2003         8.54458 
         2.3378         77.8259         8.48957 
        2.34394         77.3002         8.43503 
        2.35007         76.8287         8.38104 
        2.35619         76.4127         8.32759 
        2.36233         76.0028         8.27448 
        2.36848         75.5321         8.22173 
        2.37462         75.2257         8.16955 
        2.38075         74.4865         8.11786 
        2.38689         74.2715         8.06659 
        2.39303         73.7136         8.01576 
        2.39916         73.2964         7.96543 
        2.40529         73.0269         7.91553 
        2.41143         72.5992         7.86602 
        2.41757         72.0899         7.81692 
         2.4237         71.7967         7.76832 
        2.42983         71.2984         7.72014 
        2.43598         70.8297         7.67224 
        2.44211         70.5855         7.62483 
        2.44823         70.1618         7.57792 
        2.45437         69.6702         7.53128 
        2.46052          69.249           7.485 
        2.46665         69.0538         7.43919 
        2.47279         68.4332         7.39377 
        2.47892         68.1781         7.34871 
        2.48507         67.7776         7.30398 
         2.4912         67.3597          7.2597 
