# k  (h/Mpc)    P(k)  (Mpc/h)^3    P_linear(k)  (Mpc/h)^3
     0.00783031         12438.5         12458.3 
       0.013688         15449.1         15304.7 
       0.019231         15468.4         15414.4 
      0.0249154         13991.6         14167.9 
      0.0312784         12132.7         12191.6 
      0.0375637         10357.1         10336.1 
      0.0433917         8864.94         8985.01 
      0.0492413         8006.35         8020.98 
      0.0555754         7121.01         7316.58 
      0.0619321         6830.27         6798.54 
       0.067871         6195.18         6347.57 
      0.0738098         5713.81         5849.55 
      0.0800417         5098.89         5262.65 
      0.0862327         4585.85         4657.52 
      0.0921407         4127.06         4120.28 
      0.0982031         3651.99         3659.64 
       0.104506         3406.62         3300.68 
       0.110769         3157.84         3055.47 
       0.116806         2969.26         2893.47 
       0.122832         2837.35         2766.08 
       0.129052         2648.74         2634.22 
       0.135211         2512.44         2480.88 
       0.141259          2386.4         2304.86 
       0.147318         2231.83         2115.23 
       0.153489         2032.67         1927.88 
       0.159709         1905.24         1763.13 
       0.165845         1823.09         1634.08 
       0.171974         1716.78         1538.59 
       0.178125         1639.71          1468.8 
       0.184229         1580.26         1413.84 
        0.19034         1489.94         1361.49 
       0.196428         1461.85         1303.75 
       0.202534         1407.41         1237.16 
       0.208729         1337.89         1162.88 
       0.214876         1270.78            1088 
       0.220989         1225.62         1018.46 
       0.227147         1168.03         957.926 
        0.23329         1119.15         908.753 
       0.239377          1098.5         870.007 
       0.245482         1028.03         838.147 
       0.251667          1023.8         809.249 
       0.257832         988.414         780.433 
       0.263955         954.614         749.859 
       0.270079         920.361         717.056 
        0.27624         909.849         682.886 
       0.282372         871.025         649.569 
        0.28843         858.127         619.014 
       0.294538         814.927         591.719 
       0.300721         809.919         567.932 
        0.30691         775.992         547.422 
       0.313033         762.366          529.35 
       0.319153         742.035         512.319 
       0.325316         720.222         495.285 
        0.33145         701.581         477.973 
       0.337538         692.764         460.456 
       0.343633          672.67          442.97 
       0.349808         649.658         425.844 
       0.355968         645.233         409.871 
       0.362074         635.232         395.373 
       0.368217         617.686         382.191 
       0.374374         592.719         370.141 
       0.380519         590.946         358.944 
       0.386598          576.11         348.349 
       0.392688         573.727         337.926 
        0.39888         556.532         327.421 
       0.405048         547.461         317.063 
       0.411186         538.677          306.96 
       0.417313         527.177         297.254 
       0.423458         519.259         288.029 
       0.429607         509.856         279.353 
       0.435692         498.035         271.333 
       0.441815         494.651         263.746 
       0.447964         484.147         256.496 
       0.454126         474.076           249.5 
       0.460267         466.085         242.729 
       0.466387         460.557         236.126 
        0.47254         452.237         229.631 
       0.478662         450.612         223.355 
       0.484765         436.276         217.325 
       0.490885         432.669         211.525 
       0.497035         424.417         205.955 
       0.503198         419.008         200.641 
       0.509342         415.927         195.584 
       0.515458         411.185         190.746 
       0.521598         402.317         186.047 
       0.527764         395.063         181.467 
       0.533884         393.235         177.051 
           0.54         387.402         172.765 
       0.546137         386.043         168.588 
       0.552299         378.477         164.526 
       0.558452         376.138         160.609 
       0.564573         370.392         156.856 
       0.570708         364.378         153.237 
       0.576825         356.728         149.758 
       0.582926         355.095         146.402 
       0.589034         352.264         143.142 
       0.595184         349.025         139.954 
       0.601379         344.243         136.836 
       0.607522          338.81         133.834 
       0.613639          337.44         130.934 
       0.619772         329.249         128.113 
       0.625918         328.359         125.371 
       0.632068         323.341          122.71 
       0.638161         321.812         120.152 
         0.6443         316.338          117.65 
       0.650464         313.664         115.214 
       0.656582         311.798         112.866 
       0.662703         310.031         110.584 
       0.668861         304.238         108.353 
       0.675024          301.22         106.183 
       0.681124         299.426         104.093 
       0.687237         296.236         102.055 
       0.693381         291.949         100.062 
       0.699536         288.788         98.1185 
       0.705665         286.882         96.2352 
       0.711789         284.271         94.4035 
       0.717957         282.457         92.6075 
        0.72409         279.353          90.869 
       0.730186          276.41         89.1865 
       0.736317         273.418         87.5381 
       0.742472         272.031         85.9259 
       0.748622         269.476         84.3564 
        0.75476         266.743         82.8299 
       0.760888         263.394         81.3439 
       0.767043         263.227         79.8887 
       0.773185         259.926         78.4724 
       0.779291         255.513         77.0987 
       0.785407          255.12         75.7562 
       0.791564         252.151         74.4374 
       0.797719         249.405          73.151 
       0.803834         248.011         71.9034 
       0.809972         246.174         70.6806 
       0.816124         246.211         69.4838 
       0.822261         242.491         68.3182 
       0.828378         240.569          67.183 
       0.834502         239.296         66.0729 
       0.840667         235.891         64.9809 
       0.846816         234.273         63.9169 
       0.852925         233.002         62.8835 
       0.859047         231.068         61.8711 
       0.865192         228.748         60.8778 
       0.871341         226.783         59.9058 
       0.877463         224.853         58.9597 
       0.883569         223.965         58.0365 
       0.889708         221.736         57.1285 
       0.895864         219.274         56.2377 
       0.902008         218.158          55.368 
       0.908149         216.926         54.5173 
       0.914301         214.306         53.6832 
       0.920448         212.626         52.8675 
       0.926574         210.963         52.0717 
       0.932687         210.967         51.2942 
       0.938823         208.232         50.5298 
       0.944975         206.464         49.7793 
       0.951105         205.269          49.047 
       0.957225         203.772         48.3306 
       0.963368         201.311         47.6263 
       0.969511         200.606         46.9361 
       0.975621         198.327         46.2633 
       0.981748         198.484         45.6021 
       0.987916         196.311         44.9498 
        0.99406         194.064         44.3127 
        1.00019         193.971         43.6893 
        1.00632         192.008         43.0786 
        1.01246         190.654         42.4787 
        1.01859         190.183         41.8913 
        1.02471         187.833         41.3158 
        1.03085         185.683         40.7492 
        1.03698         185.268         40.1945 
        1.04314         183.292         39.6478 
        1.04929         182.306         39.1127 
        1.05541         181.669         38.5896 
        1.06154         179.773         38.0749 
        1.06769         179.601         37.5688 
        1.07382         178.165         37.0737 
        1.07993         176.454         36.5886 
        1.08607         175.522         36.1103 
        1.09222         174.558           35.64 
        1.09836         172.961         35.1788 
        1.10449         171.028         34.7263 
        1.11063         169.507         34.2812 
        1.11677         169.331         33.8442 
         1.1229         167.768         33.4156 
        1.12903         166.668         32.9941 
        1.13518         165.797         32.5796 
        1.14131         164.469         32.1724 
        1.14745         163.755         31.7725 
        1.15359         162.582         31.3793 
        1.15973         161.883         30.9927 
        1.16584         159.917         30.6143 
        1.17197         159.268         30.2418 
        1.17811         158.102         29.8743 
        1.18424          157.14         29.5141 
        1.19038         156.749         29.1587 
        1.19652         155.256         28.8094 
        1.20267         154.566         28.4659 
        1.20881         153.378          28.128 
        1.21495         152.373         27.7962 
        1.22108         151.396         27.4698 
         1.2272          150.15         27.1494 
        1.23334         149.266         26.8334 
        1.23949         148.367         26.5218 
        1.24562         147.387         26.2159 
        1.25174         145.722         25.9154 
        1.25789         145.153         25.6187 
        1.26402         144.136         25.3272 
        1.27014          142.87          25.041 
        1.27628         142.453         24.7584 
        1.28244         141.951         24.4796 
        1.28858          140.85         24.2055 
        1.29471         139.244         23.9362 
        1.30084         139.064         23.6713 
        1.30697         137.851           23.41 
        1.31312         137.155         23.1523 
        1.31925         136.258         22.8994 
        1.32537         135.393         22.6504 
        1.33151         134.115         22.4043 
        1.33765         133.655          22.162 
        1.34378         132.929         21.9238 
        1.34992         132.171         21.6889 
        1.35606         131.474          21.457 
         1.3622         130.359         21.2289 
        1.36833         129.368         21.0046 
        1.37445         128.629         20.7837 
        1.38059         127.837         20.5654 
        1.38675         127.181         20.3496 
        1.39288         126.477         20.1378 
        1.39901         126.023         19.9292 
        1.40515         125.043          19.723 
         1.4113         123.862         19.5199 
        1.41742          123.22         19.3204 
        1.42355         122.413         19.1233 
         1.4297         121.807         18.9284 
        1.43585         120.912         18.7363 
        1.44198         120.257         18.5476 
        1.44809         119.565         18.3618 
        1.45423         118.813          18.178 
        1.46036         118.236          17.997 
        1.46649          117.34         17.8184 
        1.47263         116.842         17.6421 
        1.47877         116.156         17.4682 
        1.48491         115.077         17.2965 
        1.49104         114.594         17.1274 
        1.49718         113.574         16.9605 
        1.50333         113.099         16.7955 
        1.50947         112.677          16.633 
         1.5156          111.84          16.473 
        1.52172         111.033         16.3151 
        1.52787         110.605         16.1589 
          1.534         109.873         16.0049 
        1.54013         108.959         15.8532 
        1.54627          108.59         15.7031 
        1.55241         107.769          15.555 
        1.55855          106.97         15.4089 
        1.56467          106.73         15.2652 
         1.5708         105.987         15.1229 
        1.57695         105.468         14.9822 
        1.58308         104.752         14.8436 
        1.58922          104.42         14.7067 
        1.59535         103.599         14.5716 
         1.6015         103.031          14.438 
        1.60764         102.373         14.3061 
        1.61376         102.049         14.1762 
        1.61989         101.087         14.0479 
        1.62604         100.751         13.9209 
        1.63218         100.214         13.7955 
        1.63831         99.4069         13.6719 
        1.64444         98.9243         13.5499 
        1.65059         98.4193          13.429 
        1.65673         97.5868         13.3098 
        1.66285         97.2785         13.1923 
        1.66898         96.7342         13.0762 
        1.67512         96.2726         12.9613 
        1.68127         95.5434         12.8477 
         1.6874         94.8109         12.7357 
        1.69353         94.4332          12.625 
        1.69967         93.7688         12.5155 
        1.70581         93.5628         12.4073 
        1.71193         93.0391         12.3008 
        1.71806         92.2355         12.1953 
        1.72421          91.806         12.0908 
        1.73035          91.192         11.9877 
        1.73649         90.6609         11.8858 
        1.74262         90.1366         11.7852 
        1.74876         89.8209         11.6857 
        1.75489         88.8879         11.5875 
        1.76101         88.5641         11.4905 
        1.76715         88.0497         11.3945 
        1.77329         87.7241         11.2994 
        1.77943         86.9679         11.2054 
        1.78557         86.6855         11.1126 
        1.79171         85.9533         11.0209 
        1.79785         85.7092         10.9302 
        1.80399         85.1149         10.8405 
        1.81012         84.5936         10.7519 
        1.81625         84.1401         10.6644 
        1.82239         83.8105         10.5777 
        1.82853         83.3369         10.4921 
        1.83466         82.7756         10.4075 
        1.84078         82.4889         10.3238 
        1.84692         81.8663          10.241 
        1.85306          81.285          10.159 
         1.8592         81.0157          10.078 
        1.86533         80.5283         9.99798 
        1.87147         79.9291          9.9187 
        1.87761          79.609         9.84026 
        1.88375         79.0976         9.76275 
        1.88988         78.7325         9.68617 
        1.89601         78.2058         9.61036 
        1.90215         77.7882         9.53531 
        1.90829         77.3489         9.46109 
        1.91442         76.9456         9.38766 
        1.92056         76.4161         9.31507 
         1.9267         76.1754         9.24318 
        1.93284         75.6137           9.172 
        1.93897          75.082         9.10171 
        1.94509         74.8612         9.03231 
        1.95123         74.4078         8.96346 
        1.95737         74.0378         8.89527 
        1.96349         73.4857         8.82797 
        1.96964         73.1208         8.76118 
        1.97578         72.6798         8.69505 
        1.98192         72.5178         8.62973 
        1.98805          71.954         8.56509 
        1.99419          71.549          8.5011 
        2.00033         71.1947         8.43773 
        2.00647         70.8811         8.37504 
         2.0126         70.2988         8.31308 
        2.01874         69.7766         8.25166 
        2.02488         69.4447         8.19081 
        2.03101         69.1986         8.13068 
        2.03714         68.7798         8.07122 
        2.04328         68.3171         8.01229 
        2.04941         67.9981         7.95399 
        2.05554         67.6798         7.89632 
        2.06167         67.2519         7.83914 
        2.06781           66.82         7.78252 
        2.07396         66.5039         7.72638 
        2.08009         66.1915         7.67089 
        2.08622         65.7224         7.61602 
        2.09237         65.3198         7.56157 
        2.09851         65.1542         7.50764 
        2.10464         64.6602         7.45433 
        2.11077         64.3143         7.40161 
        2.11691         64.1023         7.34928 
        2.12305         63.6186         7.29745 
        2.12918         63.2689         7.24624 
        2.13531         62.9269         7.19553 
        2.14145         62.6749         7.14518 
         2.1476         62.2985         7.09525 
        2.15372         61.9805         7.04605 
        2.15985         61.5776         6.99727 
        2.16599         61.2671         6.94881 
        2.17213         60.9395         6.90087 
        2.17827         60.4865         6.85338 
         2.1844         60.1864         6.80639 
        2.19054         60.0347         6.75982 
        2.19666         59.6597         6.71376 
         2.2028         59.4791         6.66808 
        2.20893         59.0424         6.62281 
        2.21508         58.6753          6.5779 
        2.22122         58.3991          6.5334 
        2.22736         58.1692          6.4894 
        2.23349         57.6926         6.44582 
        2.23962         57.4548         6.40262 
        2.24577         57.1512         6.35978 
         2.2519         56.8935         6.31739 
        2.25802         56.5246         6.27545 
        2.26417         56.1494         6.23378 
        2.27031         55.9197         6.19245 
        2.27644         55.7412         6.15162 
        2.28257         55.3692         6.11116 
        2.28872         55.0738         6.07098 
        2.29486          54.679         6.03118 
        2.30099         54.4678         5.99181 
        2.30712         54.2173         5.95278 
        2.31326         53.9868         5.91403 
         2.3194         53.6918         5.87565 
        2.32553          53.305         5.83768 
        2.33166         53.0354         5.80005 
         2.3378         52.7733         5.76271 
        2.34394         52.5298         5.72569 
        2.35007         52.1666         5.68904 
        2.35619         52.0117         5.65276 
        2.36233         51.7097         5.61671 
        2.36848         51.4092          5.5809 
        2.37462         51.1517         5.54548 
        2.38075         51.0379         5.51039 
        2.38689         50.6512         5.47559 
        2.39303          50.431         5.44109 
        2.39916         50.1816         5.40692 
        2.40529         49.9114         5.37305 
        2.41143         49.6547         5.33944 
        2.41757         49.3838         5.30611 
         2.4237          49.227         5.27312 
        2.42983         48.9267         5.24042 
        2.43598         48.6464          5.2079 
        2.44211         48.4631         5.17572 
        2.44823         48.0427         5.14388 
        2.45437         47.8883         5.11222 
        2.46052         47.6572          5.0808 
        2.46665          47.501         5.04971 
        2.47279         47.1941         5.01888 
        2.47892         47.0136         4.98829 
        2.48507         46.7304         4.95792 
         2.4912         46.5675         4.92787 
