# k  (h/Mpc)    P(k)  (Mpc/h)^3    P_linear(k)  (Mpc/h)^3
     0.00783031         5114.55         5121.63 
       0.013688          6318.8         6294.47 
       0.019231         6356.78         6341.03 
      0.0249154         5797.95         5829.09 
      0.0312784         5020.11         5016.49 
      0.0375637         4273.97         4253.32 
      0.0433917         3682.71          3697.5 
      0.0492413         3315.67          3300.9 
      0.0555754         2975.18          3011.1 
      0.0619321         2826.86         2797.96 
       0.067871         2589.26         2612.41 
      0.0738098          2387.8         2407.48 
      0.0800417         2139.37         2165.96 
      0.0862327          1913.5         1916.92 
      0.0921407         1706.66         1695.82 
      0.0982031         1509.55         1506.24 
       0.104506         1392.11         1358.51 
       0.110769         1290.57         1257.59 
       0.116806         1210.91         1190.92 
       0.122832          1162.5         1138.49 
       0.129052         1092.63         1084.22 
       0.135211          1033.7         1021.11 
       0.141259         973.618         948.664 
       0.147318         904.542         870.614 
       0.153489         822.741         793.503 
       0.159709         762.821         725.694 
       0.165845         722.613         672.581 
       0.171974         674.974          633.28 
       0.178125         647.594         604.555 
       0.184229         626.008         581.933 
        0.19034         589.962         560.387 
       0.196428         577.168          536.62 
       0.202534         555.801         509.214 
       0.208729         523.776         478.642 
       0.214876         491.315         447.821 
       0.220989         470.632           419.2 
       0.227147         442.617         394.283 
        0.23329         423.063         374.043 
       0.239377         411.884         358.096 
       0.245482         386.791         344.982 
       0.251667         382.774         333.088 
       0.257832         371.525         321.227 
       0.263955         357.271         308.643 
       0.270079         343.909         295.142 
        0.27624         336.671         281.077 
       0.282372         322.235         267.364 
        0.28843         310.419         254.788 
       0.294538         297.128         243.553 
       0.300721         292.212         233.762 
        0.30691          278.73          225.32 
       0.313033         272.833         217.882 
       0.319153         261.742         210.872 
       0.325316         256.129         203.861 
        0.33145         247.445         196.735 
       0.337538         243.779         189.525 
       0.343633         235.333         182.328 
       0.349808         227.984         175.279 
       0.355968         223.696         168.704 
       0.362074         217.037         162.737 
       0.368217         211.674         157.311 
       0.374374         205.183         152.351 
       0.380519         201.316         147.743 
       0.386598         196.324         143.382 
       0.392688         193.224         139.092 
        0.39888         188.451         134.768 
       0.405048         184.146         130.504 
       0.411186         180.092         126.346 
       0.417313         175.767         122.351 
       0.423458         172.472         118.554 
       0.429607         168.267         114.983 
       0.435692         162.772         111.682 
       0.441815         161.739         108.559 
       0.447964         159.029         105.575 
       0.454126         152.183         102.695 
       0.460267         150.671         99.9084 
       0.466387         148.318         97.1906 
        0.47254         145.489         94.5171 
       0.478662         143.966         91.9341 
       0.484765         139.739          89.452 
       0.490885          137.49         87.0648 
       0.497035         135.942         84.7722 
       0.503198         132.121          82.585 
       0.509342         129.791         80.5033 
       0.515458         127.925          78.512 
       0.521598         126.328         76.5781 
       0.527764         124.317         74.6925 
       0.533884         122.402          72.875 
           0.54         120.209         71.1109 
       0.546137         119.187         69.3917 
       0.552299         117.368         67.7196 
       0.558452         114.634         66.1074 
       0.564573         112.633         64.5628 
       0.570708         111.331         63.0732 
       0.576825         109.575          61.641 
       0.582926         107.606         60.2596 
       0.589034          105.76         58.9181 
       0.595184         104.537         57.6058 
       0.601379         103.294         56.3223 
       0.607522         100.896         55.0868 
       0.613639         100.587          53.893 
       0.619772         98.2997         52.7319 
       0.625918         97.4851         51.6034 
       0.632068         96.2793          50.508 
       0.638161         95.0894         49.4551 
         0.6443         93.8062         48.4256 
       0.650464          92.722         47.4226 
       0.656582         91.4073         46.4562 
       0.662703         89.7891          45.517 
       0.668861         88.7766         44.5988 
       0.675024         87.7803         43.7053 
       0.681124         86.6312         42.8453 
       0.687237          85.199         42.0065 
       0.693381         84.3109         41.1861 
       0.699536         83.2198         40.3861 
       0.705665         83.5329         39.6109 
       0.711789         81.2736          38.857 
       0.717957         80.7053         38.1178 
        0.72409         79.5907         37.4022 
       0.730186         78.3391         36.7097 
       0.736317         78.1773         36.0312 
       0.742472          77.149         35.3676 
       0.748622         76.3906         34.7216 
        0.75476         75.5986         34.0933 
       0.760888         74.5041         33.4816 
       0.767043         73.7608         32.8826 
       0.773185         72.8621         32.2997 
       0.779291         72.4805         31.7343 
       0.785407         71.6593         31.1817 
       0.791564         70.7472         30.6389 
       0.797719         69.7462         30.1094 
       0.803834         69.4843         29.5958 
       0.809972         68.3064         29.0925 
       0.816124          67.682         28.5999 
       0.822261         67.1999         28.1202 
       0.828378         66.6416         27.6529 
       0.834502          65.902          27.196 
       0.840667         65.3918         26.7465 
       0.846816         64.5025         26.3085 
       0.852925         63.9018         25.8832 
       0.859047         63.1555         25.4665 
       0.865192          62.822         25.0577 
       0.871341         62.4967         24.6576 
       0.877463         61.2548         24.2681 
       0.883569         60.8432         23.8882 
       0.889708         60.5442         23.5144 
       0.895864         59.9746         23.1478 
       0.902008         59.3926         22.7898 
       0.908149         58.9709         22.4396 
       0.914301         58.5626         22.0963 
       0.920448          57.881         21.7606 
       0.926574           57.39          21.433 
       0.932687         57.0212          21.113 
       0.938823         56.1748         20.7984 
       0.944975          55.981         20.4895 
       0.951105         55.4028          20.188 
       0.957225         54.7728         19.8932 
       0.963368         54.6027         19.6033 
       0.969511         54.1564         19.3192 
       0.975621          53.739         19.0423 
       0.981748         53.0818         18.7701 
       0.987916         52.9012         18.5016 
        0.99406         52.4205         18.2394 
        1.00019          51.807         17.9828 
        1.00632          51.538         17.7314 
        1.01246         51.1185         17.4845 
        1.01859         50.5204         17.2427 
        1.02471         50.5935         17.0058 
        1.03085         49.9909         16.7726 
        1.03698         49.5047         16.5443 
        1.04314          49.038         16.3193 
        1.04929         48.7778          16.099 
        1.05541         48.2578         15.8837 
        1.06154         48.1994         15.6719 
        1.06769         47.7269         15.4636 
        1.07382         47.4166         15.2598 
        1.07993          47.236         15.0601 
        1.08607         46.6941         14.8632 
        1.09222         46.5414         14.6697 
        1.09836         46.0939         14.4798 
        1.10449         45.7133         14.2935 
        1.11063         45.2378         14.1104 
        1.11677          44.959         13.9305 
         1.1229         44.8415         13.7541 
        1.12903         44.1381         13.5806 
        1.13518         44.1172         13.4099 
        1.14131         43.9749         13.2424 
        1.14745         43.4509         13.0777 
        1.15359          43.369         12.9159 
        1.15973         42.8111         12.7568 
        1.16584         42.5082          12.601 
        1.17197         42.4256         12.4477 
        1.17811          42.104         12.2965 
        1.18424         41.6183         12.1482 
        1.19038         41.5789         12.0019 
        1.19652         41.3443         11.8581 
        1.20267         41.0491         11.7167 
        1.20881         40.8184         11.5777 
        1.21495         40.4735         11.4411 
        1.22108         40.2005         11.3067 
         1.2272         39.8032         11.1749 
        1.23334         39.6728         11.0448 
        1.23949         39.4573         10.9165 
        1.24562         39.1989         10.7906 
        1.25174         39.0337         10.6669 
        1.25789         38.7431         10.5448 
        1.26402         38.4395         10.4248 
        1.27014         38.1799          10.307 
        1.27628         37.9881         10.1907 
        1.28244         37.7657         10.0759 
        1.28858         37.6147         9.96312 
        1.29471         37.3316         9.85229 
        1.30084         37.2279         9.74325 
        1.30697           36.92         9.63571 
        1.31312         36.5402         9.52964 
        1.31925         36.5234         9.42552 
        1.32537          36.355         9.32306 
        1.33151         36.0834         9.22176 
        1.33765         36.0152         9.12203 
        1.34378         35.7466         9.02397 
        1.34992         35.2992          8.9273 
        1.35606         35.2122         8.83183 
         1.3622         35.0119         8.73794 
        1.36833         34.8521         8.64564 
        1.37445         34.8307         8.55472 
        1.38059         34.5839         8.46484 
        1.38675         34.2821         8.37603 
        1.39288         34.1796         8.28886 
        1.39901         33.8796         8.20298 
        1.40515         33.8398         8.11812 
         1.4113         33.6657          8.0345 
        1.41742          33.358         7.95238 
        1.42355         33.3042         7.87126 
         1.4297         33.0425         7.79104 
        1.43585         33.0329         7.71196 
        1.44198         32.7367          7.6343 
        1.44809         32.6057         7.55785 
        1.45423         32.5092         7.48217 
        1.46036         32.4184         7.40767 
        1.46649         32.1518         7.33415 
        1.47263         32.0011         7.26159 
        1.47877         31.9085         7.19004 
        1.48491          31.669         7.11934 
        1.49104         31.5971         7.04975 
        1.49718         31.3503         6.98103 
        1.50333         31.3203         6.91313 
        1.50947          31.172         6.84627 
         1.5156         31.0087         6.78039 
        1.52172         30.7833         6.71538 
        1.52787         30.8272          6.6511 
          1.534         30.5981         6.58774 
        1.54013         30.4105         6.52527 
        1.54627         30.3507          6.4635 
        1.55241         30.1972         6.40252 
        1.55855         30.0026         6.34242 
        1.56467         29.8678         6.28325 
         1.5708         29.8763         6.22468 
        1.57695         29.5847         6.16677 
        1.58308         29.6793         6.10973 
        1.58922         29.4539         6.05337 
        1.59535         29.3086         5.99775 
         1.6015          29.184         5.94275 
        1.60764         29.1441         5.88848 
        1.61376          28.963         5.83503 
        1.61989          28.764          5.7822 
        1.62604          28.833         5.72991 
        1.63218         28.5865         5.67831 
        1.63831          28.564         5.62746 
        1.64444         28.4556         5.57722 
        1.65059         28.2975         5.52747 
        1.65673         28.2106         5.47838 
        1.66285         28.1402         5.43003 
        1.66898         28.0055         5.38225 
        1.67512         27.9639         5.33495 
        1.68127         27.8162         5.28818 
         1.6874         27.7185         5.24208 
        1.69353         27.6334         5.19655 
        1.69967         27.4931         5.15145 
        1.70581         27.4926         5.10691 
        1.71193         27.3594         5.06307 
        1.71806         27.2941         5.01965 
        1.72421          27.132         4.97665 
        1.73035           27.12         4.93421 
        1.73649         27.0431         4.89227 
        1.74262         26.9622         4.85085 
        1.74876         26.8577         4.80989 
        1.75489         26.7449         4.76949 
        1.76101         26.7263         4.72956 
        1.76715         26.6579         4.69003 
        1.77329         26.5999         4.65092 
        1.77943         26.4456         4.61223 
        1.78557         26.4053         4.57404 
        1.79171         26.3473         4.53627 
        1.79785         26.2575         4.49893 
        1.80399         26.2208         4.46202 
        1.81012         26.1856         4.42557 
        1.81625         26.0493         4.38955 
        1.82239         26.0428         4.35387 
        1.82853         25.9085         4.31861 
        1.83466         25.8041         4.28377 
        1.84078         25.7313         4.24936 
        1.84692         25.7563         4.21527 
        1.85306         25.6519         4.18152 
         1.8592         25.5814         4.14818 
        1.86533         25.5305         4.11523 
        1.87147          25.451          4.0826 
        1.87761         25.4946         4.05031 
        1.88375         25.3948         4.01841 
        1.88988         25.3362         3.98689 
        1.89601         25.2172         3.95569 
        1.90215         25.1983          3.9248 
        1.90829         25.1647         3.89425 
        1.91442         25.0733         3.86402 
        1.92056         25.0066         3.83414 
         1.9267         25.0195         3.80455 
        1.93284         24.8648         3.77526 
        1.93897         24.8924         3.74632 
        1.94509         24.8517         3.71776 
        1.95123         24.7161         3.68942 
        1.95737         24.7237         3.66135 
        1.96349         24.6817         3.63365 
        1.96964         24.6257         3.60616 
        1.97578         24.6189         3.57894 
        1.98192         24.5022         3.55206 
        1.98805          24.524         3.52545 
        1.99419         24.4068         3.49911 
        2.00033         24.3655         3.47303 
        2.00647         24.3295         3.44722 
         2.0126         24.2287         3.42172 
        2.01874         24.2658         3.39644 
        2.02488         24.2513         3.37139 
        2.03101         24.2012         3.34664 
        2.03714         24.1276         3.32217 
        2.04328          24.055         3.29791 
        2.04941         24.0715         3.27392 
        2.05554         24.0329         3.25018 
        2.06167         23.9546         3.22664 
        2.06781         23.9455         3.20334 
        2.07396         23.8926         3.18023 
        2.08009         23.8676         3.15739 
        2.08622         23.8607          3.1348 
        2.09237         23.7964         3.11239 
        2.09851         23.6998          3.0902 
        2.10464         23.6539         3.06825 
        2.11077         23.5857         3.04655 
        2.11691         23.6003         3.02501 
        2.12305         23.5354         3.00368 
        2.12918         23.5264          2.9826 
        2.13531         23.4942         2.96173 
        2.14145         23.4318           2.941 
         2.1476         23.4122         2.92045 
        2.15372         23.3891          2.9002 
        2.15985         23.3152         2.88012 
        2.16599         23.2827         2.86018 
        2.17213         23.2588         2.84044 
        2.17827         23.2124          2.8209 
         2.1844         23.1885         2.80156 
        2.19054         23.1225         2.78239 
        2.19666         23.1632         2.76343 
         2.2028          23.149         2.74463 
        2.20893         23.0342         2.72599 
        2.21508         23.0147         2.70751 
        2.22122         22.9514         2.68919 
        2.22736         22.9347         2.67108 
        2.23349         22.9265         2.65315 
        2.23962         22.8311         2.63536 
        2.24577         22.7699         2.61773 
         2.2519         22.8302         2.60028 
        2.25802         22.7999         2.58302 
        2.26417         22.7018         2.56587 
        2.27031         22.6906         2.54886 
        2.27644         22.6288         2.53205 
        2.28257         22.6402         2.51539 
        2.28872         22.5793         2.49886 
        2.29486         22.5254         2.48247 
        2.30099          22.511         2.46627 
        2.30712         22.5768         2.45021 
        2.31326         22.4479         2.43426 
         2.3194         22.4327         2.41846 
        2.32553         22.3593         2.40283 
        2.33166         22.2988         2.38734 
         2.3378         22.2673         2.37197 
        2.34394         22.2262         2.35673 
        2.35007         22.2099         2.34165 
        2.35619         22.1673         2.32671 
        2.36233          22.149         2.31188 
        2.36848         22.1145         2.29714 
        2.37462         22.1168         2.28256 
        2.38075         22.0813         2.26812 
        2.38689         22.0827         2.25379 
        2.39303         21.9691         2.23959 
        2.39916         21.9368         2.22553 
        2.40529          21.939         2.21158 
        2.41143         21.8856         2.19775 
        2.41757         21.8212         2.18403 
         2.4237         21.8446         2.17045 
        2.42983         21.7459         2.15699 
        2.43598         21.7341         2.14361 
        2.44211          21.694         2.13036 
        2.44823         21.6293         2.11726 
        2.45437         21.6504         2.10423 
        2.46052         21.6059         2.09129 
        2.46665         21.5807         2.07849 
        2.47279         21.5265         2.06581 
        2.47892         21.4847         2.05321 
        2.48507         21.4623         2.04072 
         2.4912         21.4523         2.02835 
