# k  (h/Mpc)    Pcb(k)  (Mpc/h)^3    Pcb_linear(k)  (Mpc/h)^3
     0.00783031          7159.5         7203.61 
       0.013688         8864.43         8855.29 
       0.019231         8906.42         8918.99 
      0.0249154         8103.34         8198.02 
      0.0312784         7020.67         7054.48 
      0.0375637         5982.46          5980.9 
      0.0433917         5144.25          5199.1 
      0.0492413         4636.28          4641.3 
      0.0555754         4149.01         4233.72 
      0.0619321         3954.64         3933.97 
       0.067871         3611.03         3673.04 
      0.0738098         3329.97         3384.87 
      0.0800417         2979.73         3045.27 
      0.0862327         2669.68         2695.11 
      0.0921407         2387.46         2384.24 
      0.0982031         2111.31         2117.69 
       0.104506          1954.5         1909.98 
       0.110769         1811.77         1768.09 
       0.116806         1700.28         1674.35 
       0.122832         1630.52         1600.64 
       0.129052         1529.01         1524.34 
       0.135211         1447.88          1435.6 
       0.141259         1367.33         1333.75 
       0.147318         1272.66         1224.02 
       0.153489         1157.82         1115.61 
       0.159709         1077.56         1020.27 
       0.165845         1023.74         945.597 
       0.171974         958.452         890.342 
       0.178125         918.415         849.956 
       0.184229         887.402         818.151 
        0.19034         834.862          787.86 
       0.196428         818.446         754.444 
       0.202534         788.703         715.914 
       0.208729         745.048         672.932 
       0.214876         700.953           629.6 
       0.220989          673.35         589.362 
       0.227147         635.704         554.329 
        0.23329         608.229         525.873 
       0.239377         593.826         503.452 
       0.245482         555.958         485.016 
       0.251667         551.609         468.293 
       0.257832         534.883         451.618 
       0.263955         515.146         433.927 
       0.270079         496.075         414.943 
        0.27624         487.754         395.171 
       0.282372         466.895         375.891 
        0.28843          452.58          358.21 
       0.294538         431.894         342.415 
       0.300721         426.753         328.649 
        0.30691         407.254         316.782 
       0.313033         399.496         306.324 
       0.319153         384.691         296.467 
       0.325316         375.145         286.611 
        0.33145         363.237         276.594 
       0.337538         358.884         266.456 
       0.343633         346.682         256.337 
       0.349808          335.53         246.428 
       0.355968         330.946         237.184 
       0.362074         322.378         228.794 
       0.368217         314.406         221.166 
       0.374374         303.462         214.193 
       0.380519         299.289         207.713 
       0.386598         292.041         201.583 
       0.392688         288.579         195.551 
        0.39888         281.095         189.472 
       0.405048         275.032         183.478 
       0.411186          269.16         177.632 
       0.417313         263.544         172.015 
       0.423458         259.165         166.676 
       0.429607         253.165         161.657 
       0.435692         245.672         157.015 
       0.441815         244.194         152.625 
       0.447964         239.781         148.429 
       0.454126         230.275         144.381 
       0.460267         228.002         140.463 
       0.466387         225.068         136.642 
        0.47254         220.272         132.883 
       0.478662         218.882         129.252 
       0.484765         212.295         125.762 
       0.490885         209.362         122.406 
       0.497035         206.746         119.183 
       0.503198         201.389         116.107 
       0.509342         199.079         113.181 
       0.515458         196.116         110.381 
       0.521598         193.448         107.662 
       0.527764         190.408         105.011 
       0.533884         187.831         102.456 
           0.54         184.844         99.9757 
       0.546137         183.746         97.5588 
       0.552299         180.415         95.2079 
       0.558452         177.437         92.9413 
       0.564573         174.444         90.7699 
       0.570708          171.76         88.6754 
       0.576825         169.482          86.662 
       0.582926         166.848         84.7199 
       0.589034         164.664         82.8337 
       0.595184         162.873         80.9888 
       0.601379         161.038         79.1843 
       0.607522         157.661         77.4473 
       0.613639         156.876         75.7689 
       0.619772         153.516         74.1365 
       0.625918         152.124         72.5499 
       0.632068         150.365           71.01 
       0.638161         149.053         69.5296 
         0.6443         146.982         68.0822 
       0.650464         145.549         66.6721 
       0.656582         143.637         65.3134 
       0.662703         141.578         63.9929 
       0.668861         139.592          62.702 
       0.675024         138.164         61.4459 
       0.681124         137.152         60.2368 
       0.687237         134.715         59.0575 
       0.693381         132.947         57.9041 
       0.699536         131.967         56.7794 
       0.705665         132.138         55.6896 
       0.711789         128.807         54.6296 
       0.717957         128.298         53.5903 
        0.72409         126.474         52.5843 
       0.730186         124.497         51.6106 
       0.736317         124.056         50.6567 
       0.742472         123.053         49.7238 
       0.748622         121.793         48.8156 
        0.75476         120.683         47.9322 
       0.760888         119.027         47.0723 
       0.767043         118.027         46.2302 
       0.773185         116.734         45.4106 
       0.779291         115.487         44.6157 
       0.785407          114.58         43.8388 
       0.791564         113.506         43.0756 
       0.797719         111.799         42.3312 
       0.803834         111.384         41.6092 
       0.809972         109.784         40.9016 
       0.816124         109.345         40.2091 
       0.822261         108.279         39.5345 
       0.828378         107.266         38.8776 
       0.834502         106.512         38.2352 
       0.840667         105.353         37.6033 
       0.846816         104.151         36.9876 
       0.852925         103.254         36.3896 
       0.859047         102.135         35.8037 
       0.865192          101.65         35.2289 
       0.871341         100.765         34.6665 
       0.877463         99.4776         34.1189 
       0.883569         98.7059         33.5847 
       0.889708         98.1261         33.0593 
       0.895864         97.3198         32.5438 
       0.902008          96.413         32.0405 
       0.908149         95.8865         31.5482 
       0.914301         94.9044         31.0655 
       0.920448         94.1891         30.5935 
       0.926574          93.428          30.133 
       0.932687         93.1296          29.683 
       0.938823         91.7108         29.2407 
       0.944975         91.0182         28.8064 
       0.951105         90.3401         28.3826 
       0.957225         89.2952         27.9681 
       0.963368         88.8532         27.5605 
       0.969511         88.4806         27.1611 
       0.975621         87.9582         26.7718 
       0.981748         86.9766         26.3892 
       0.987916         86.4942         26.0117 
        0.99406         85.7531          25.643 
        1.00019         84.9671         25.2823 
        1.00632         84.3974         24.9288 
        1.01246         83.7171         24.5817 
        1.01859         82.7282         24.2418 
        1.02471         82.9115         23.9087 
        1.03085         81.9416         23.5808 
        1.03698         81.2886         23.2598 
        1.04314         80.5488         22.9435 
        1.04929         80.0818         22.6338 
        1.05541         79.3218         22.3311 
        1.06154         79.1339         22.0333 
        1.06769         78.5452         21.7404 
        1.07382         78.2154         21.4539 
        1.07993          77.725         21.1732 
        1.08607          76.933         20.8964 
        1.09222         76.6199         20.6243 
        1.09836         75.9385         20.3574 
        1.10449         75.3906         20.0955 
        1.11063         74.9238          19.838 
        1.11677         74.3364         19.5851 
         1.1229         73.8108          19.337 
        1.12903         72.8882         19.0931 
        1.13518         73.0164         18.8532 
        1.14131         72.5965         18.6176 
        1.14745         71.7485         18.3862 
        1.15359         71.5237         18.1587 
        1.15973         70.9584         17.9349 
        1.16584         70.4439          17.716 
        1.17197         70.0462         17.5004 
        1.17811         69.6623         17.2878 
        1.18424         68.9279         17.0793 
        1.19038         68.6571         16.8737 
        1.19652         68.4071         16.6715 
        1.20267         67.8407         16.4727 
        1.20881         67.5805         16.2772 
        1.21495         66.9715         16.0852 
        1.22108         66.5268         15.8963 
         1.2272         65.8825         15.7109 
        1.23334         65.7284         15.5281 
        1.23949         65.3684         15.3477 
        1.24562          65.019         15.1707 
        1.25174         64.7279         14.9968 
        1.25789         64.3211         14.8251 
        1.26402         63.7223         14.6564 
        1.27014         63.2365         14.4908 
        1.27628         62.9584         14.3273 
        1.28244         62.6119         14.1659 
        1.28858         62.2874         14.0073 
        1.29471         61.8936         13.8515 
        1.30084          61.635         13.6982 
        1.30697          61.175          13.547 
        1.31312         60.7741         13.3979 
        1.31925         60.6955         13.2515 
        1.32537         60.2816         13.1074 
        1.33151          59.856          12.965 
        1.33765         59.5472         12.8248 
        1.34378         59.1049         12.6869 
        1.34992         58.7097          12.551 
        1.35606         58.4787         12.4168 
         1.3622         58.1392         12.2848 
        1.36833         57.8861          12.155 
        1.37445          57.692         12.0272 
        1.38059          57.186         11.9008 
        1.38675         56.9049          11.776 
        1.39288         56.5669         11.6534 
        1.39901         56.3279         11.5327 
        1.40515         56.1376         11.4134 
         1.4113         55.7878         11.2958 
        1.41742         55.5009         11.1804 
        1.42355         55.1619         11.0663 
         1.4297         54.7835         10.9535 
        1.43585         54.5994         10.8424 
        1.44198         54.3566         10.7332 
        1.44809         54.1282         10.6257 
        1.45423         53.9059         10.5193 
        1.46036         53.6767         10.4146 
        1.46649         53.3123         10.3112 
        1.47263         53.0313         10.2092 
        1.47877         52.8407         10.1086 
        1.48491         52.5071         10.0092 
        1.49104         52.2143         9.91135 
        1.49718         51.8587         9.81475 
        1.50333         51.7722         9.71928 
        1.50947         51.5122         9.62528 
         1.5156         51.1712         9.53266 
        1.52172         51.0427         9.44127 
        1.52787         50.8875         9.35089 
          1.534         50.6153         9.26181 
        1.54013         50.2889         9.17398 
        1.54627         50.0691         9.08714 
        1.55241         49.8273         9.00141 
        1.55855         49.4908         8.91691 
        1.56467         49.2085         8.83373 
         1.5708         49.2257         8.75138 
        1.57695         48.9269         8.66996 
        1.58308         48.7353         8.58977 
        1.58922         48.7125         8.51054 
        1.59535         48.4176         8.43234 
         1.6015         48.0575         8.35502 
        1.60764         47.8812         8.27871 
        1.61376         47.6589         8.20356 
        1.61989         47.3153         8.12929 
        1.62604         47.2787         8.05578 
        1.63218         47.0764         7.98323 
        1.63831         46.8393         7.91174 
        1.64444         46.6241          7.8411 
        1.65059         46.4086         7.77116 
        1.65673          46.195         7.70215 
        1.66285         46.0135         7.63417 
        1.66898         45.7499           7.567 
        1.67512         45.6286          7.5005 
        1.68127         45.3838         7.43474 
         1.6874         45.3167         7.36992 
        1.69353         45.0394         7.30592 
        1.69967         44.8202         7.24252 
        1.70581         44.8669          7.1799 
        1.71193          44.555         7.11826 
        1.71806         44.2987         7.05721 
        1.72421         44.1707         6.99676 
        1.73035         43.9377         6.93709 
        1.73649         43.7415         6.87813 
        1.74262         43.6355          6.8199 
        1.74876          43.541         6.76231 
        1.75489         43.2899          6.7055 
        1.76101         43.1755         6.64937 
        1.76715         43.0028          6.5938 
        1.77329         42.8275          6.5388 
        1.77943         42.6108         6.48441 
        1.78557          42.464         6.43072 
        1.79171         42.3307         6.37763 
        1.79785         42.2036         6.32513 
        1.80399         42.0299         6.27323 
        1.81012         41.9711         6.22199 
        1.81625          41.512         6.17134 
        1.82239         41.5686         6.12118 
        1.82853         41.2864         6.07161 
        1.83466         41.1241         6.02263 
        1.84078         41.0192         5.97425 
        1.84692         40.8136         5.92633 
        1.85306         40.7111         5.87887 
         1.8592         40.6011           5.832 
        1.86533         40.3169         5.78568 
        1.87147         40.3159         5.73981 
        1.87761          40.255         5.69441 
        1.88375         39.9591         5.64956 
        1.88988         39.9522         5.60524 
        1.89601         39.7088         5.56137 
        1.90215         39.5551         5.51794 
        1.90829         39.5166         5.47499 
        1.91442         39.2719          5.4325 
        1.92056         39.1952         5.39049 
         1.9267         39.0118         5.34889 
        1.93284         38.8228          5.3077 
        1.93897         38.7567         5.26703 
        1.94509         38.6002         5.22686 
        1.95123           38.48         5.18702 
        1.95737         38.2984         5.14756 
        1.96349         38.2484         5.10862 
        1.96964         38.0408         5.06997 
        1.97578         37.9626          5.0317 
        1.98192         37.8186          4.9939 
        1.98805         37.7704         4.95649 
        1.99419          37.517         4.91946 
        2.00033         37.3815         4.88279 
        2.00647         37.3127         4.84651 
         2.0126         37.1966         4.81066 
        2.01874         37.1022         4.77512 
        2.02488         37.0237          4.7399 
        2.03101         36.8419         4.70511 
        2.03714         36.6813          4.6707 
        2.04328         36.4838         4.63659 
        2.04941         36.4478         4.60286 
        2.05554         36.2532         4.56948 
        2.06167         36.2698          4.5364 
        2.06781         36.0409         4.50363 
        2.07396         35.8964         4.47115 
        2.08009         35.8744         4.43904 
        2.08622         35.7624         4.40728 
        2.09237         35.6003         4.37577 
        2.09851         35.4233         4.34457 
        2.10464         35.4074         4.31372 
        2.11077         35.1578         4.28321 
        2.11691         35.1313         4.25292 
        2.12305         34.9293         4.22293 
        2.12918         34.9663          4.1933 
        2.13531         34.7817         4.16395 
        2.14145         34.7311         4.13481 
         2.1476         34.4912         4.10592 
        2.15372         34.4336         4.07745 
        2.15985         34.3138         4.04922 
        2.16599         34.2326         4.02118 
        2.17213         34.0912         3.99344 
        2.17827         33.9209         3.96596 
         2.1844           33.81         3.93876 
        2.19054         33.7299         3.91182 
        2.19666         33.6771         3.88516 
         2.2028         33.5334         3.85872 
        2.20893         33.4498         3.83253 
        2.21508         33.3494         3.80654 
        2.22122         33.1892         3.78079 
        2.22736         33.1003         3.75533 
        2.23349         32.9574         3.73011 
        2.23962         32.8666         3.70511 
        2.24577          32.753         3.68032 
         2.2519         32.7047         3.65579 
        2.25802         32.5721         3.63152 
        2.26417         32.4616          3.6074 
        2.27031         32.4175         3.58349 
        2.27644         32.2849         3.55986 
        2.28257         32.1175         3.53644 
        2.28872         32.0466         3.51319 
        2.29486         31.9057         3.49016 
        2.30099         31.8333         3.46738 
        2.30712          31.771         3.44479 
        2.31326         31.6964         3.42237 
         2.3194         31.5661         3.40016 
        2.32553          31.384         3.37818 
        2.33166         31.3073         3.35641 
         2.3378         31.2024          3.3348 
        2.34394         31.0193         3.31338 
        2.35007         30.9702         3.29217 
        2.35619         30.9465         3.27118 
        2.36233         30.8762         3.25031 
        2.36848         30.6969         3.22959 
        2.37462         30.6064         3.20909 
        2.38075         30.5295         3.18879 
        2.38689         30.4579         3.16865 
        2.39303          30.308         3.14869 
        2.39916         30.2081         3.12891 
        2.40529         30.0896         3.10931 
        2.41143         30.0705         3.08986 
        2.41757         29.8854         3.07058 
         2.4237          29.882         3.05149 
        2.42983         29.6981         3.03256 
        2.43598         29.6527         3.01375 
        2.44211         29.5772         2.99512 
        2.44823         29.4541          2.9767 
        2.45437         29.4038         2.95838 
        2.46052         29.3012          2.9402 
        2.46665         29.2191          2.9222 
        2.47279         29.0924         2.90436 
        2.47892         28.9869         2.88666 
        2.48507         28.9628         2.86909 
         2.4912          28.861          2.8517 
