# k  (h/Mpc)    P(k)  (Mpc/h)^3    P_linear(k)  (Mpc/h)^3
     0.00783031         14921.3         14941.4 
       0.013688         18556.2         18353.4 
       0.019231         18553.9         18484.2 
      0.0249154         16743.4         16988.9 
      0.0312784         14522.9         14618.7 
      0.0375637         12406.7         12393.6 
      0.0433917         10599.8         10773.4 
      0.0492413         9581.07         9617.43 
      0.0555754         8500.43         8772.77 
      0.0619321         8172.17         8151.58 
       0.067871         7393.03         7610.83 
      0.0738098         6819.71         7013.68 
      0.0800417         6079.54         6309.96 
      0.0862327         5476.29         5584.38 
      0.0921407         4941.35         4940.22 
      0.0982031         4375.35          4387.9 
       0.104506         4092.54         3957.51 
       0.110769         3794.18         3663.49 
       0.116806         3571.88         3469.26 
       0.122832         3407.59          3316.5 
       0.129052         3176.28         3158.41 
       0.135211         3013.94         2974.55 
       0.141259         2869.64          2763.5 
       0.147318         2689.58         2536.13 
       0.153489         2451.22          2311.5 
       0.159709         2302.54         2113.97 
       0.165845         2210.32         1959.24 
       0.171974         2086.05         1844.75 
       0.178125         1990.26         1761.07 
       0.184229         1914.71         1695.17 
        0.19034         1811.24         1632.41 
       0.196428         1775.26         1563.17 
       0.202534         1707.24         1483.34 
       0.208729          1627.4         1394.28 
       0.214876         1552.87          1304.5 
       0.220989         1498.81         1221.12 
       0.227147         1433.63         1148.54 
        0.23329         1374.36         1089.58 
       0.239377         1351.74         1043.12 
       0.245482         1266.93         1004.92 
       0.251667         1262.77         970.275 
       0.257832         1217.36         935.725 
       0.263955         1176.12         899.067 
       0.270079         1134.94         859.737 
        0.27624         1122.34         818.768 
       0.282372         1075.15         778.821 
        0.28843         1065.45         742.186 
       0.294538         1011.98          709.46 
       0.300721         1005.81          680.94 
        0.30691          966.53         656.349 
       0.313033         949.068          634.68 
       0.319153         927.767         614.261 
       0.325316         899.637         593.838 
        0.33145         878.515         573.081 
       0.337538         865.647         552.077 
       0.343633          843.72         531.112 
       0.349808         814.953         510.579 
       0.355968         809.482         491.427 
       0.362074         799.908         474.045 
       0.368217         776.276         458.239 
       0.374374         746.197         443.791 
       0.380519         745.986         430.366 
       0.386598         726.258         417.663 
       0.392688         723.895         405.166 
        0.39888         702.082         392.571 
       0.405048         692.804         380.152 
       0.411186         682.887         368.039 
       0.417313         667.614         356.401 
       0.423458          657.34         345.341 
       0.429607         647.221         334.939 
       0.435692         633.234         325.322 
       0.441815         628.663         316.226 
       0.447964         615.088         307.533 
       0.454126         607.011         299.145 
       0.460267         593.996         291.027 
       0.466387         587.048          283.11 
        0.47254         579.688         275.322 
       0.478662         575.738         267.798 
       0.484765         558.083         260.568 
       0.490885         554.298         253.614 
       0.497035         542.828         246.936 
       0.503198         538.465         240.565 
       0.509342         533.656         234.501 
       0.515458         529.119           228.7 
       0.521598         516.365         223.067 
       0.527764          507.07         217.575 
       0.533884         505.497          212.28 
           0.54         498.646         207.141 
       0.546137         496.053         202.133 
       0.552299         487.896         197.263 
       0.558452         484.685         192.567 
       0.564573         478.055         188.067 
       0.570708         471.403         183.728 
       0.576825         459.317         179.556 
       0.582926         459.468         175.532 
       0.589034         455.967         171.624 
       0.595184         451.787         167.802 
       0.601379         445.208         164.063 
       0.607522         438.365         160.464 
       0.613639         437.749         156.987 
       0.619772         427.141         153.605 
       0.625918         425.732         150.317 
       0.632068         419.498         147.127 
       0.638161         417.579         144.059 
         0.6443         410.332          141.06 
       0.650464          407.64         138.139 
       0.656582         404.932         135.324 
       0.662703         403.082         132.588 
       0.668861         395.939         129.913 
       0.675024         392.484         127.311 
       0.681124         389.495         124.805 
       0.687237         385.889         122.362 
       0.693381         380.872         119.972 
       0.699536         375.289         117.642 
       0.705665         373.558         115.384 
       0.711789          371.36         113.188 
       0.717957         368.038         111.034 
        0.72409         365.134          108.95 
       0.730186         360.542         106.933 
       0.736317         357.052         104.956 
       0.742472         355.506         103.023 
       0.748622         351.662         101.142 
        0.75476         347.222         99.3113 
       0.760888         343.428         97.5295 
       0.767043         343.354         95.7848 
       0.773185         339.321         94.0867 
       0.779291         334.477         92.4397 
       0.785407         333.668           90.83 
       0.791564         329.119         89.2489 
       0.797719         326.821         87.7064 
       0.803834         324.118         86.2105 
       0.809972         322.221         84.7445 
       0.816124         321.942         83.3096 
       0.822261         317.205          81.912 
       0.828378         315.193          80.551 
       0.834502         312.158           79.22 
       0.840667         308.822         77.9107 
       0.846816         307.027         76.6349 
       0.852925         304.967          75.396 
       0.859047         302.557         74.1821 
       0.865192         299.244         72.9911 
       0.871341         296.808         71.8258 
       0.877463         295.176         70.6913 
       0.883569         293.261         69.5845 
       0.889708         290.644         68.4958 
       0.895864         288.382         67.4278 
       0.902008         286.056          66.385 
       0.908149         283.511          65.365 
       0.914301         280.801          64.365 
       0.920448         278.725          63.387 
       0.926574         275.426         62.4329 
       0.932687         275.804         61.5006 
       0.938823         272.377         60.5841 
       0.944975         270.913         59.6843 
       0.951105         268.523         58.8062 
       0.957225         267.096         57.9474 
       0.963368         263.846         57.1029 
       0.969511         262.757         56.2753 
       0.975621          259.67         55.4687 
       0.981748         259.742          54.676 
       0.987916         257.598         53.8938 
        0.99406         253.526         53.1299 
        1.00019         252.979         52.3825 
        1.00632         251.234         51.6503 
        1.01246          249.15          50.931 
        1.01859          249.31         50.2267 
        1.02471         245.307         49.5367 
        1.03085         243.569         48.8573 
        1.03698         242.777         48.1923 
        1.04314         239.537         47.5368 
        1.04929          238.24         46.8952 
        1.05541          238.08         46.2681 
        1.06154         234.312          45.651 
        1.06769         233.868         45.0442 
        1.07382         232.299         44.4505 
        1.07993         230.284          43.869 
        1.08607         229.301         43.2954 
        1.09222         227.836         42.7316 
        1.09836         225.901         42.1786 
        1.10449         223.301          41.636 
        1.11063          221.22         41.1024 
        1.11677         220.931         40.5785 
         1.1229         219.277         40.0646 
        1.12903         217.512         39.5592 
        1.13518         216.006         39.0622 
        1.14131          214.27          38.574 
        1.14745         213.517         38.0945 
        1.15359         211.708         37.6231 
        1.15973         210.585         37.1595 
        1.16584          208.29         36.7059 
        1.17197         208.391         36.2592 
        1.17811         205.478         35.8186 
        1.18424         204.547         35.3867 
        1.19038         203.774         34.9607 
        1.19652         201.833         34.5419 
        1.20267         201.079         34.1299 
        1.20881         199.609         33.7248 
        1.21495         198.031          33.327 
        1.22108         196.888         32.9356 
         1.2272         195.156         32.5515 
        1.23334         193.947         32.1727 
        1.23949         192.729          31.799 
        1.24562         191.744         31.4323 
        1.25174         189.854          31.072 
        1.25789          188.59         30.7163 
        1.26402         186.929         30.3668 
        1.27014         185.691         30.0236 
        1.27628          184.88         29.6847 
        1.28244         184.576         29.3505 
        1.28858          182.37         29.0218 
        1.29471         180.734          28.699 
        1.30084         180.247         28.3814 
        1.30697         178.565         28.0681 
        1.31312         177.176         27.7591 
        1.31925         176.478         27.4558 
        1.32537         175.345         27.1574 
        1.33151          173.82         26.8623 
        1.33765         172.545         26.5718 
        1.34378         171.792         26.2861 
        1.34992         170.663         26.0045 
        1.35606         170.195         25.7265 
         1.3622         168.746         25.4529 
        1.36833         167.072         25.1841 
        1.37445         166.354         24.9192 
        1.38059         164.505         24.6574 
        1.38675         164.137         24.3987 
        1.39288         162.933         24.1448 
        1.39901         162.583         23.8946 
        1.40515         160.682         23.6475 
         1.4113         159.687         23.4039 
        1.41742          158.35         23.1647 
        1.42355         157.453         22.9284 
         1.4297         156.284         22.6947 
        1.43585         155.802         22.4644 
        1.44198          154.52         22.2381 
        1.44809         153.812         22.0154 
        1.45423         152.777          21.795 
        1.46036         152.032          21.578 
        1.46649         150.526         21.3638 
        1.47263         149.687         21.1524 
        1.47877         148.611          20.944 
        1.48491         147.333         20.7381 
        1.49104         147.018         20.5354 
        1.49718         145.306         20.3352 
        1.50333         144.768         20.1374 
        1.50947         144.118         19.9427 
         1.5156         142.996         19.7508 
        1.52172         141.867         19.5614 
        1.52787         140.826         19.3741 
          1.534         140.375         19.1896 
        1.54013         139.257         19.0076 
        1.54627          138.44         18.8277 
        1.55241         137.291           18.65 
        1.55855         136.347          18.475 
        1.56467         135.528         18.3026 
         1.5708         134.858          18.132 
        1.57695          133.86         17.9633 
        1.58308         133.107         17.7972 
        1.58922         132.544          17.633 
        1.59535         131.255          17.471 
         1.6015         131.128         17.3108 
        1.60764         129.688         17.1527 
        1.61376         129.029          16.997 
        1.61989         128.038         16.8431 
        1.62604         127.196         16.6908 
        1.63218         126.885         16.5405 
        1.63831         125.753         16.3924 
        1.64444         125.103          16.246 
        1.65059         124.047         16.1011 
        1.65673         123.303         15.9581 
        1.66285         122.655         15.8173 
        1.66898         121.739         15.6781 
        1.67512         121.341         15.5403 
        1.68127         120.315         15.4041 
         1.6874         119.321         15.2698 
        1.69353         118.905         15.1371 
        1.69967         117.964         15.0058 
        1.70581         117.491          14.876 
        1.71193         116.678         14.7483 
        1.71806         115.937         14.6218 
        1.72421         115.121         14.4966 
        1.73035          114.69          14.373 
        1.73649         113.845         14.2508 
        1.74262         113.073         14.1302 
        1.74876         112.578         14.0108 
        1.75489         111.442         13.8931 
        1.76101         110.738         13.7768 
        1.76715         110.341         13.6617 
        1.77329         109.912         13.5478 
        1.77943         108.729         13.4351 
        1.78557         108.259         13.3238 
        1.79171         107.642         13.2138 
        1.79785         106.866          13.105 
        1.80399         106.105         12.9975 
        1.81012         105.506         12.8913 
        1.81625         105.052         12.7864 
        1.82239          104.46         12.6825 
        1.82853         103.588         12.5798 
        1.83466         103.063         12.4783 
        1.84078         102.579         12.3781 
        1.84692         101.428         12.2788 
        1.85306         101.168         12.1804 
         1.8592         100.578         12.0833 
        1.86533         99.6661         11.9874 
        1.87147          99.294         11.8923 
        1.87761         98.5492         11.7982 
        1.88375          97.803         11.7053 
        1.88988         97.3386         11.6135 
        1.89601          96.596         11.5226 
        1.90215         96.1151         11.4326 
        1.90829         95.5679         11.3436 
        1.91442         94.9686         11.2556 
        1.92056         94.2278         11.1686 
         1.9267         93.9931         11.0824 
        1.93284         93.3107          10.997 
        1.93897         92.5858         10.9127 
        1.94509         92.2375         10.8295 
        1.95123          91.513          10.747 
        1.95737         91.1484         10.6652 
        1.96349         90.3443         10.5845 
        1.96964         89.7662         10.5045 
        1.97578         89.3231         10.4252 
        1.98192         89.0128         10.3469 
        1.98805           88.32         10.2693 
        1.99419         87.8405         10.1926 
        2.00033         87.1651         10.1167 
        2.00647         86.8227         10.0415 
         2.0126         86.0208          9.9672 
        2.01874         85.5949         9.89355 
        2.02488         85.1256         9.82059 
        2.03101         84.5493         9.74851 
        2.03714         83.9963         9.67721 
        2.04328         83.5628         9.60655 
        2.04941         83.0261         9.53665 
        2.05554         82.4985         9.46751 
        2.06167           82.14         9.39895 
        2.06781         81.5162         9.33107 
        2.07396         81.1032         9.26376 
        2.08009         80.6782         9.19723 
        2.08622         79.9985         9.13143 
        2.09237         79.4838         9.06615 
        2.09851         79.1628         9.00149 
        2.10464         78.5444         8.93758 
        2.11077         78.3078         8.87436 
        2.11691         77.9336         8.81162 
        2.12305         77.1619         8.74947 
        2.12918         76.7761         8.68808 
        2.13531         76.2941         8.62727 
        2.14145         75.8981         8.56691 
         2.1476         75.2525         8.50705 
        2.15372         74.9458         8.44806 
        2.15985         74.4623         8.38957 
        2.16599         74.0748         8.33147 
        2.17213         73.5223         8.27398 
        2.17827         73.2029         8.21705 
         2.1844         72.6542         8.16071 
        2.19054         72.4105         8.10487 
        2.19666         72.0419         8.04964 
         2.2028         71.5313         7.99488 
        2.20893         71.1358         7.94059 
        2.21508         70.7156         7.88676 
        2.22122         70.2753          7.8334 
        2.22736         69.9127         7.78065 
        2.23349         69.5723          7.7284 
        2.23962         69.0951          7.6766 
        2.24577          68.761         7.62523 
         2.2519         68.3353         7.57441 
        2.25802         67.7676         7.52413 
        2.26417         67.4768         7.47416 
        2.27031         67.0485         7.42461 
        2.27644         66.6203         7.37565 
        2.28257         66.3113         7.32714 
        2.28872          65.992         7.27897 
        2.29486          65.576         7.23124 
        2.30099         65.2017         7.18404 
        2.30712         64.8592         7.13725 
        2.31326         64.5821         7.09079 
         2.3194         64.1076         7.04477 
        2.32553         63.7706         6.99924 
        2.33166         63.4631         6.95413 
         2.3378         62.9932         6.90936 
        2.34394         62.6187         6.86497 
        2.35007         62.3258         6.82103 
        2.35619         62.0149         6.77753 
        2.36233         61.6445          6.7343 
        2.36848         61.2182         6.69137 
        2.37462         60.8565          6.6489 
        2.38075         60.6667         6.60684 
        2.38689         60.2854          6.5651 
        2.39303         59.9114         6.52374 
        2.39916          59.606         6.48277 
        2.40529         59.3327         6.44216 
        2.41143         58.8821         6.40187 
        2.41757         58.6957          6.3619 
         2.4237         58.4401         6.32235 
        2.42983         58.0662         6.28314 
        2.43598          57.649         6.24416 
        2.44211         57.4318         6.20557 
        2.44823         57.1017          6.1674 
        2.45437         56.6554         6.12944 
        2.46052         56.4086         6.09177 
        2.46665         56.1998         6.05448 
        2.47279         55.8217         6.01752 
        2.47892         55.6595         5.98084 
        2.48507         55.1572         5.94444 
         2.4912         54.9678         5.90841 
