# k  (h/Mpc)    Pcb(k)  (Mpc/h)^3    Pcb_linear(k)  (Mpc/h)^3
     0.00783031         6641.67         6681.52 
       0.013688         8219.48         8213.82 
       0.019231         8261.23         8273.09 
      0.0249154         7521.02         7604.44 
      0.0312784         6515.26         6543.78 
      0.0375637         5550.62         5547.96 
      0.0433917         4775.35         4822.78 
      0.0492413         4302.75         4305.37 
      0.0555754         3853.11          3927.3 
      0.0619321         3669.82         3649.25 
       0.067871          3353.5         3407.21 
      0.0738098          3092.5          3139.9 
      0.0800417         2768.09         2824.88 
      0.0862327         2479.02         2500.07 
      0.0921407         2215.47          2211.7 
      0.0982031         1959.26         1964.44 
       0.104506         1812.07         1771.76 
       0.110769         1679.78         1640.14 
       0.116806         1576.27         1553.19 
       0.122832         1512.06          1484.8 
       0.129052          1418.7         1414.03 
       0.135211         1343.12         1331.72 
       0.141259         1267.58         1237.24 
       0.147318         1179.27         1135.44 
       0.153489         1072.78         1034.87 
       0.159709         997.507          946.44 
       0.165845         946.997          877.17 
       0.171974          886.07         825.913 
       0.178125         849.345          788.45 
       0.184229         820.785         758.947 
        0.19034         772.401         730.847 
       0.196428         756.907          699.85 
       0.202534         729.322         664.108 
       0.208729         688.523         624.236 
       0.214876         647.248          584.04 
       0.220989         621.364         546.714 
       0.227147         586.035         514.216 
        0.23329         560.593         487.819 
       0.239377         546.954         467.021 
       0.245482         512.368         449.919 
       0.251667         508.065         434.405 
       0.257832          492.83         418.938 
       0.263955         474.453         402.526 
       0.270079         456.843         384.917 
        0.27624         448.742         366.575 
       0.282372         429.554         348.691 
        0.28843         415.699         332.289 
       0.294538             397         317.637 
       0.300721         391.855         304.867 
        0.30691         373.887         293.859 
       0.313033         366.591         284.157 
       0.319153         352.642         275.014 
       0.325316         344.161         265.871 
        0.33145         333.041         256.579 
       0.337538         328.888         247.175 
       0.343633         317.636         237.788 
       0.349808         307.494         228.596 
       0.355968         302.932          220.02 
       0.362074         294.763         212.238 
       0.368217           287.5         205.162 
       0.374374         277.809         198.693 
       0.380519         273.627         192.682 
       0.386598         266.952         186.996 
       0.392688         263.519           181.4 
        0.39888         256.793         175.761 
       0.405048         251.166         170.201 
       0.411186         245.731         164.778 
       0.417313         240.465         159.568 
       0.423458         236.366         154.615 
       0.429607         230.811         149.959 
       0.435692         223.776         145.653 
       0.441815         222.436          141.58 
       0.447964         218.501         137.688 
       0.454126         209.567         133.933 
       0.460267         207.534         130.298 
       0.466387         204.782         126.754 
        0.47254           200.5         123.267 
       0.478662         199.034         119.899 
       0.484765         193.099         116.661 
       0.490885         190.315         113.548 
       0.497035         188.031         110.558 
       0.503198         182.996         107.705 
       0.509342         180.643         104.991 
       0.515458         177.974         102.394 
       0.521598         175.645         99.8713 
       0.527764         172.901         97.4124 
       0.533884         170.441          95.042 
           0.54         167.657         92.7412 
       0.546137          166.56         90.4992 
       0.552299         163.667         88.3184 
       0.558452         160.683         86.2158 
       0.564573         157.951         84.2016 
       0.570708         155.672         82.2586 
       0.576825         153.556         80.3909 
       0.582926         151.046         78.5893 
       0.589034         148.932         76.8396 
       0.595184         147.283         75.1283 
       0.601379         145.612         73.4543 
       0.607522         142.452          71.843 
       0.613639         141.828          70.286 
       0.619772         138.765         68.7718 
       0.625918         137.484            67.3 
       0.632068          135.91         65.8715 
       0.638161           134.6         64.4982 
         0.6443         132.774         63.1556 
       0.650464         131.435         61.8476 
       0.656582         129.603         60.5871 
       0.662703         127.617         59.3622 
       0.668861         125.953         58.1647 
       0.675024         124.657         56.9995 
       0.681124         123.582         55.8779 
       0.687237         121.387         54.7839 
       0.693381         119.861          53.714 
       0.699536         118.867         52.6707 
       0.705665         119.125         51.6597 
       0.711789         116.011         50.6764 
       0.717957         115.481         49.7124 
        0.72409         113.846         48.7791 
       0.730186         112.034         47.8759 
       0.736317         111.731         46.9911 
       0.742472         110.712         46.1257 
       0.748622          109.57         45.2831 
        0.75476         108.538         44.4637 
       0.760888         107.039          43.666 
       0.767043         106.069         42.8848 
       0.773185         104.883         42.1246 
       0.779291         103.924         41.3872 
       0.785407         103.006         40.6665 
       0.791564         101.982         39.9586 
       0.797719         100.485          39.268 
       0.803834         100.104         38.5982 
       0.809972         98.5501         37.9419 
       0.816124         98.0594         37.2994 
       0.822261         97.1914         36.6737 
       0.828378         96.3115         36.0644 
       0.834502         95.4939         35.4684 
       0.840667         94.5824         34.8822 
       0.846816         93.4395          34.311 
       0.852925         92.6011         33.7564 
       0.859047         91.5853         33.2129 
       0.865192         91.1543         32.6797 
       0.871341         90.4464         32.1579 
       0.877463         89.1211           31.65 
       0.883569         88.4572         31.1544 
       0.889708         87.9729          30.667 
       0.895864          87.245         30.1888 
       0.902008         86.3966          29.722 
       0.908149         85.9052         29.2653 
       0.914301         85.0619         28.8176 
       0.920448         84.3784         28.3797 
       0.926574         83.6672         27.9525 
       0.932687         83.3688         27.5351 
       0.938823         82.0782         27.1248 
       0.944975         81.5736         26.7219 
       0.951105         80.8811         26.3288 
       0.957225         79.9488         25.9443 
       0.963368         79.6009         25.5662 
       0.969511         79.1887         25.1957 
       0.975621         78.6912         24.8345 
       0.981748          77.774         24.4796 
       0.987916         77.4065         24.1294 
        0.99406         76.7375         23.7874 
        1.00019         75.9693         23.4528 
        1.00632         75.5047         23.1249 
        1.01246         74.8552         22.8029 
        1.01859         73.9849         22.4876 
        1.02471         74.1796         22.1786 
        1.03085         73.2827         21.8745 
        1.03698         72.6944         21.5767 
        1.04314         72.0147         21.2833 
        1.04929         71.6042          20.996 
        1.05541         70.8925         20.7152 
        1.06154         70.7754         20.4389 
        1.06769          70.179         20.1673 
        1.07382         69.8707         19.9015 
        1.07993         69.4788         19.6411 
        1.08607         68.7549         19.3843 
        1.09222          68.486         19.1319 
        1.09836         67.8797         18.8843 
        1.10449         67.3548         18.6413 
        1.11063         66.8828         18.4024 
        1.11677         66.3543         18.1678 
         1.1229         66.0012         17.9378 
        1.12903         65.0738         17.7115 
        1.13518         65.2021          17.489 
        1.14131         64.8537         17.2704 
        1.14745         64.0645         17.0557 
        1.15359         63.9098         16.8447 
        1.15973         63.3065         16.6371 
        1.16584         62.8788          16.434 
        1.17197         62.5396          16.234 
        1.17811         62.2317         16.0368 
        1.18424         61.5056         15.8434 
        1.19038         61.3256         15.6527 
        1.19652         61.0856         15.4651 
        1.20267         60.6027         15.2807 
        1.20881         60.3529         15.0993 
        1.21495         59.7938         14.9212 
        1.22108         59.3986          14.746 
         1.2272         58.8257          14.574 
        1.23334         58.6768         14.4044 
        1.23949         58.4027         14.2371 
        1.24562         58.0251         14.0729 
        1.25174         57.7985         13.9116 
        1.25789         57.4271         13.7523 
        1.26402         56.8473         13.5959 
        1.27014         56.4707         13.4422 
        1.27628         56.2133         13.2905 
        1.28244         55.8863         13.1408 
        1.28858         55.6332         12.9937 
        1.29471         55.2662         12.8492 
        1.30084         55.0763          12.707 
        1.30697         54.6383         12.5667 
        1.31312          54.214         12.4284 
        1.31925         54.1913         12.2926 
        1.32537         53.8254         12.1589 
        1.33151         53.4604         12.0268 
        1.33765         53.2357         11.8968 
        1.34378         52.8493         11.7689 
        1.34992         52.3804         11.6428 
        1.35606         52.1963         11.5183 
         1.3622         51.9129         11.3958 
        1.36833         51.6861         11.2755 
        1.37445         51.5636         11.1569 
        1.38059         51.1268         11.0397 
        1.38675         50.8372         10.9239 
        1.39288         50.5844         10.8102 
        1.39901         50.2873         10.6982 
        1.40515         50.1556         10.5875 
         1.4113         49.8857         10.4784 
        1.41742         49.5545         10.3713 
        1.42355         49.3207         10.2655 
         1.4297         48.9363         10.1609 
        1.43585         48.8605         10.0578 
        1.44198         48.5756          9.9565 
        1.44809         48.3668          9.8568 
        1.45423         48.1885          9.7581 
        1.46036          48.002         9.66093 
        1.46649         47.6454         9.56506 
        1.47263         47.4158         9.47042 
        1.47877         47.2823          9.3771 
        1.48491         46.9596          9.2849 
        1.49104         46.7009         9.19414 
        1.49718          46.381         9.10453 
        1.50333         46.3425         9.01597 
        1.50947         46.1108         8.92877 
         1.5156         45.7877         8.84286 
        1.52172         45.6327         8.75807 
        1.52787         45.5529         8.67424 
          1.534         45.2897          8.5916 
        1.54013         44.9872         8.51013 
        1.54627         44.8157         8.42957 
        1.55241         44.6137         8.35004 
        1.55855         44.3233         8.27166 
        1.56467         44.0583          8.1945 
         1.5708         44.1002         8.11811 
        1.57695         43.7916         8.04258 
        1.58308         43.7088         7.96819 
        1.58922         43.6162         7.89469 
        1.59535         43.3454         7.82215 
         1.6015         43.0641         7.75043 
        1.60764         42.9152         7.67964 
        1.61376         42.7111         7.60993 
        1.61989         42.3979         7.54104 
        1.62604         42.4194         7.47285 
        1.63218         42.1696         7.40554 
        1.63831         42.0038         7.33923 
        1.64444         41.8408          7.2737 
        1.65059         41.6418         7.20882 
        1.65673         41.4357          7.1448 
        1.66285         41.3063         7.08175 
        1.66898         41.0574         7.01943 
        1.67512          40.973         6.95775 
        1.68127         40.7521         6.89675 
         1.6874         40.6784         6.83662 
        1.69353         40.4405         6.77724 
        1.69967         40.2791         6.71843 
        1.70581         40.2979         6.66034 
        1.71193         40.0358         6.60316 
        1.71806          39.845         6.54653 
        1.72421         39.6686         6.49046 
        1.73035          39.509         6.43511 
        1.73649         39.3958         6.38041 
        1.74262         39.2574          6.3264 
        1.74876         39.1995         6.27297 
        1.75489         38.9706         6.22028 
        1.76101          38.861          6.1682 
        1.76715         38.7291         6.11666 
        1.77329         38.5705         6.06564 
        1.77943         38.3967         6.01518 
        1.78557         38.2499         5.96538 
        1.79171         38.1547         5.91613 
        1.79785         38.0503         5.86742 
        1.80399         37.9069         5.81928 
        1.81012         37.8602         5.77175 
        1.81625         37.4785         5.72477 
        1.82239         37.5347         5.67824 
        1.82853         37.3034         5.63225 
        1.83466         37.1298         5.58682 
        1.84078         37.0692         5.54194 
        1.84692         36.9074         5.49748 
        1.85306         36.8156         5.45346 
         1.8592         36.7063         5.40999 
        1.86533         36.4668         5.36701 
        1.87147         36.4729         5.32446 
        1.87761         36.4352         5.28235 
        1.88375         36.2028         5.24074 
        1.88988          36.171         5.19963 
        1.89601         35.9696         5.15894 
        1.90215         35.8581         5.11865 
        1.90829         35.8221         5.07881 
        1.91442         35.6071         5.03939 
        1.92056         35.5419         5.00042 
         1.9267         35.4066         4.96183 
        1.93284         35.2241         4.92362 
        1.93897         35.1947         4.88589 
        1.94509         35.0744         4.84864 
        1.95123         34.9307         4.81167 
        1.95737         34.8076         4.77507 
        1.96349         34.7867         4.73895 
        1.96964           34.59         4.70309 
        1.97578         34.5504         4.66759 
        1.98192         34.4098         4.63253 
        1.98805         34.4011         4.59783 
        1.99419         34.1609         4.56348 
        2.00033         34.0399         4.52946 
        2.00647         33.9936         4.49581 
         2.0126          33.867         4.46255 
        2.01874         33.8504         4.42958 
        2.02488         33.7784         4.39691 
        2.03101         33.6034         4.36464 
        2.03714         33.4626         4.33271 
        2.04328         33.3003         4.30108 
        2.04941          33.307         4.26978 
        2.05554         33.1448         4.23883 
        2.06167          33.128         4.20813 
        2.06781         32.9587         4.17774 
        2.07396          32.846          4.1476 
        2.08009         32.8348         4.11782 
        2.08622          32.772         4.08836 
        2.09237         32.6288         4.05913 
        2.09851         32.4562         4.03018 
        2.10464         32.4503         4.00157 
        2.11077         32.2146         3.97326 
        2.11691         32.2214         3.94517 
        2.12305         32.0572         3.91735 
        2.12918          32.094         3.88986 
        2.13531         31.9551         3.86264 
        2.14145          31.894         3.83561 
         2.1476         31.7064         3.80881 
        2.15372         31.6655          3.7824 
        2.15985         31.5557         3.75621 
        2.16599         31.4612          3.7302 
        2.17213          31.372         3.70446 
        2.17827           31.22         3.67897 
         2.1844         31.1373         3.65374 
        2.19054         31.0702         3.62875 
        2.19666         31.0546         3.60402 
         2.2028         30.9405          3.5795 
        2.20893         30.8624         3.55519 
        2.21508         30.7719         3.53109 
        2.22122         30.6202          3.5072 
        2.22736         30.5525         3.48358 
        2.23349         30.4338         3.46019 
        2.23962         30.3491           3.437 
        2.24577         30.2591           3.414 
         2.2519           30.25         3.39124 
        2.25802         30.1384         3.36873 
        2.26417          30.022         3.34636 
        2.27031         29.9956         3.32418 
        2.27644         29.8836         3.30226 
        2.28257         29.7602         3.28054 
        2.28872         29.6886         3.25897 
        2.29486         29.5593          3.2376 
        2.30099         29.4696         3.21647 
        2.30712         29.4795         3.19552 
        2.31326         29.4054         3.17472 
         2.3194         29.2873         3.15412 
        2.32553         29.1382         3.13373 
        2.33166         29.0504         3.11353 
         2.3378         28.9954         3.09349 
        2.34394         28.8366         3.07361 
        2.35007         28.7769         3.05394 
        2.35619         28.7635         3.03447 
        2.36233         28.7271         3.01511 
        2.36848         28.5858         2.99589 
        2.37462         28.4798         2.97687 
        2.38075         28.4375         2.95804 
        2.38689         28.3787         2.93936 
        2.39303         28.2425         2.92084 
        2.39916         28.1577          2.9025 
        2.40529         28.0845         2.88431 
        2.41143         28.0641         2.86627 
        2.41757         27.8894         2.84838 
         2.4237         27.9007         2.83067 
        2.42983         27.7261         2.81312 
        2.43598         27.6962         2.79566 
        2.44211         27.6441         2.77839 
        2.44823           27.52          2.7613 
        2.45437         27.4952          2.7443 
        2.46052          27.392         2.72744 
        2.46665         27.3451         2.71074 
        2.47279         27.2089         2.69419 
        2.47892         27.1435         2.67777 
        2.48507         27.1045         2.66147 
         2.4912         27.0226         2.64534 
