# k  (h/Mpc)    Pcb(k)  (Mpc/h)^3    Pcb_linear(k)  (Mpc/h)^3
     0.00783031          7627.2         7675.27 
       0.013688         9447.32         9434.78 
       0.019231         9489.24         9502.48 
      0.0249154         8628.88         8734.23 
      0.0312784         7476.87         7515.83 
      0.0375637         6372.37         6371.99 
      0.0433917         5477.08         5539.05 
      0.0492413         4937.31         4944.76 
      0.0555754          4415.8         4510.51 
      0.0619321         4211.69         4191.16 
       0.067871          3843.2         3913.16 
      0.0738098         3544.07         3606.15 
      0.0800417         3170.45         3244.34 
      0.0862327         2841.61          2871.3 
      0.0921407         2542.72          2540.1 
      0.0982031         2248.62         2256.12 
       0.104506         2083.26         2034.84 
       0.110769         1931.09         1883.67 
       0.116806         1812.46          1783.8 
       0.122832          1737.6         1705.27 
       0.129052         1628.64         1623.98 
       0.135211         1542.52         1529.45 
       0.141259         1457.53         1420.94 
       0.147318         1357.18         1304.03 
       0.153489          1234.8         1188.53 
       0.159709          1150.1         1086.96 
       0.165845         1093.37         1007.41 
       0.171974          1024.2          948.54 
       0.178125         981.118         905.515 
       0.184229         947.839         871.631 
        0.19034         891.581         839.359 
       0.196428         874.317          803.76 
       0.202534          842.59         762.711 
       0.208729         796.402         716.919 
       0.214876         749.836         670.755 
       0.220989         720.691         627.886 
       0.227147         681.011         590.563 
        0.23329         651.681         560.247 
       0.239377         636.614         536.361 
       0.245482         595.776         516.719 
       0.251667         591.398         498.903 
       0.257832         573.268         481.139 
       0.263955          552.31         462.291 
       0.270079          531.91         442.066 
        0.27624         523.406         421.001 
       0.282372         501.016         400.462 
        0.28843         486.384         381.625 
       0.294538         463.846         364.797 
       0.300721         458.729         350.132 
        0.30691         437.849         337.489 
       0.313033         429.668         326.347 
       0.319153         414.136         315.846 
       0.325316         403.604         305.345 
        0.33145         390.998         294.673 
       0.337538         386.438         283.873 
       0.343633         373.385         273.093 
       0.349808         361.296         262.536 
       0.355968         356.715         252.687 
       0.362074         347.834          243.75 
       0.368217          339.19         235.622 
       0.374374          327.06         228.194 
       0.380519         322.943          221.29 
       0.386598         315.161         214.759 
       0.392688         311.704         208.333 
        0.39888         303.494         201.857 
       0.405048         297.049         195.471 
       0.411186         290.806         189.242 
       0.417313         284.841         183.259 
       0.423458         280.213         177.571 
       0.429607         273.817         172.223 
       0.435692         265.932         167.278 
       0.441815         264.315         162.601 
       0.447964         259.445         158.131 
       0.454126         249.501         153.818 
       0.460267         246.972         149.644 
       0.466387         243.851         145.573 
        0.47254         238.594         141.569 
       0.478662         237.286           137.7 
       0.484765         230.083         133.982 
       0.490885         227.028         130.407 
       0.497035          224.07         126.973 
       0.503198          218.47         123.697 
       0.509342         216.208         120.579 
       0.515458         212.982         117.596 
       0.521598         209.965         114.699 
       0.527764         206.631         111.875 
       0.533884         203.987         109.153 
           0.54         200.797         106.511 
       0.546137         199.713         103.936 
       0.552299         195.963         101.431 
       0.558452         193.023         99.0164 
       0.564573         189.795         96.7031 
       0.570708          186.72         94.4717 
       0.576825         184.265         92.3267 
       0.582926         181.549         90.2576 
       0.589034         179.308         88.2481 
       0.595184         177.387         86.2827 
       0.601379         175.396         84.3602 
       0.607522         171.831         82.5097 
       0.613639         170.901         80.7215 
       0.619772         167.239         78.9825 
       0.625918         165.785         77.2922 
       0.632068         163.825         75.6515 
       0.638161         162.525         74.0744 
         0.6443         160.203         72.5324 
       0.650464         158.674         71.0302 
       0.656582         156.735         69.5826 
       0.662703         154.637         68.1758 
       0.668861         152.333         66.8005 
       0.675024         150.769         65.4623 
       0.681124         149.804         64.1742 
       0.687237         147.174         62.9178 
       0.693381         145.185          61.689 
       0.699536         144.187         60.4908 
       0.705665         144.239         59.3297 
       0.711789         140.771         58.2004 
       0.717957         140.267         57.0932 
        0.72409         138.282         56.0214 
       0.730186         136.175         54.9841 
       0.736317         135.569         53.9679 
       0.742472         134.574          52.974 
       0.748622         133.217         52.0064 
        0.75476         132.034         51.0653 
       0.760888         130.226         50.1491 
       0.767043         129.225          49.252 
       0.773185         127.826         48.3788 
       0.779291         126.278          47.532 
       0.785407         125.402         46.7043 
       0.791564         124.275         45.8913 
       0.797719         122.374         45.0982 
       0.803834         121.929          44.329 
       0.809972          120.31         43.5751 
       0.816124          119.92         42.8373 
       0.822261         118.643         42.1187 
       0.828378         117.511         41.4189 
       0.834502         116.848         40.7345 
       0.840667         115.421         40.0612 
       0.846816         114.174         39.4053 
       0.852925         113.244         38.7682 
       0.859047         112.019          38.144 
       0.865192         111.468         37.5317 
       0.871341         110.431         36.9324 
       0.877463         109.176         36.3491 
       0.883569         108.319           35.78 
       0.889708         107.636         35.2202 
       0.895864         106.734          34.671 
       0.902008         105.792         34.1348 
       0.908149         105.232         33.6104 
       0.914301         104.131         33.0961 
       0.920448         103.364         32.5933 
       0.926574         102.567         32.1027 
       0.932687         102.252         31.6233 
       0.938823         100.731          31.152 
       0.944975         99.8584         30.6894 
       0.951105          99.199         30.2379 
       0.957225         98.0596         29.7962 
       0.963368         97.5035          29.362 
       0.969511         97.1745         28.9365 
       0.975621         96.6154         28.5217 
       0.981748         95.5937         28.1141 
       0.987916         94.9819         27.7119 
        0.99406         94.1904         27.3191 
        1.00019         93.4073         26.9348 
        1.00632         92.7183         26.5583 
        1.01246         92.0263         26.1885 
        1.01859         90.9489         25.8263 
        1.02471         91.0705         25.4715 
        1.03085         90.0325         25.1222 
        1.03698         89.3296         24.7802 
        1.04314         88.5381         24.4432 
        1.04929         88.0214         24.1133 
        1.05541         87.2162         23.7908 
        1.06154         86.9494         23.4735 
        1.06769         86.3954         23.1615 
        1.07382         86.0121         22.8563 
        1.07993         85.4241         22.5572 
        1.08607         84.5797         22.2623 
        1.09222         84.2218         21.9724 
        1.09836         83.4639          21.688 
        1.10449         82.8976          21.409 
        1.11063         82.4232         21.1347 
        1.11677         81.8014         20.8653 
         1.1229         81.0995          20.601 
        1.12903         80.2051         20.3412 
        1.13518         80.3139         20.0856 
        1.14131         79.8278         19.8346 
        1.14745         78.9444          19.588 
        1.15359         78.6385         19.3456 
        1.15973         78.1147         19.1073 
        1.16584         77.5083          18.874 
        1.17197         77.0762         18.6443 
        1.17811         76.5936         18.4178 
        1.18424         75.8777         18.1957 
        1.19038         75.5375         17.9766 
        1.19652         75.2515         17.7613 
        1.20267         74.6045         17.5495 
        1.20881         74.3253         17.3412 
        1.21495          73.683         17.1366 
        1.22108         73.1916         16.9354 
         1.2272         72.4792         16.7378 
        1.23334         72.3259          16.543 
        1.23949         71.8518         16.3509 
        1.24562         71.5448         16.1624 
        1.25174         71.1804         15.9771 
        1.25789           70.74         15.7942 
        1.26402         70.1547         15.6145 
        1.27014         69.5603          15.438 
        1.27628          69.275         15.2638 
        1.28244          68.894         15.0919 
        1.28858         68.5074         14.9229 
        1.29471         68.0803         14.7569 
        1.30084         67.7578         14.5936 
        1.30697         67.2874         14.4325 
        1.31312         66.9064         14.2736 
        1.31925         66.7447         14.1177 
        1.32537         66.3123         13.9642 
        1.33151         65.8169         13.8125 
        1.33765         65.4316         13.6631 
        1.34378         64.9366         13.5162 
        1.34992         64.6177         13.3714 
        1.35606         64.3383         13.2284 
         1.3622         63.9421         13.0878 
        1.36833         63.6667         12.9496 
        1.37445         63.3906         12.8134 
        1.38059         62.8419         12.6787 
        1.38675         62.5387         12.5457 
        1.39288         62.1364         12.4152 
        1.39901         61.9503         12.2865 
        1.40515         61.6973         12.1594 
         1.4113         61.2669         12.0342 
        1.41742         61.0261         11.9112 
        1.42355         60.5899         11.7897 
         1.4297         60.2193         11.6695 
        1.43585         59.9256         11.5511 
        1.44198         59.7187         11.4348 
        1.44809         59.4615         11.3202 
        1.45423         59.1983         11.2069 
        1.46036         58.9383         11.0953 
        1.46649         58.5605         10.9852 
        1.47263         58.2439         10.8765 
        1.47877           57.99         10.7693 
        1.48491         57.6351         10.6634 
        1.49104         57.3286         10.5592 
        1.49718         56.9368         10.4563 
        1.50333         56.7888         10.3546 
        1.50947         56.4998         10.2544 
         1.5156         56.1676         10.1558 
        1.52172         56.0355         10.0584 
        1.52787         55.8213         9.96211 
          1.534          55.525         9.86721 
        1.54013         55.1744         9.77364 
        1.54627         54.9195         9.68112 
        1.55241         54.6449         9.58978 
        1.55855         54.2692         9.49976 
        1.56467         53.9704         9.41115 
         1.5708         53.9589         9.32341 
        1.57695         53.6723         9.23667 
        1.58308         53.3884         9.15124 
        1.58922         53.3842         9.06683 
        1.59535         53.0819         8.98352 
         1.6015         52.6412         8.90114 
        1.60764         52.4594         8.81984 
        1.61376          52.206         8.73979 
        1.61989           51.85         8.66067 
        1.62604         51.7417         8.58235 
        1.63218         51.5823         8.50505 
        1.63831         51.2943         8.42889 
        1.64444         51.0273         8.35363 
        1.65059         50.7645         8.27912 
        1.65673         50.5854          8.2056 
        1.66285         50.3394         8.13318 
        1.66898         50.0824         8.06161 
        1.67512          49.897         7.99077 
        1.68127         49.6256         7.92072 
         1.6874         49.5596         7.85166 
        1.69353         49.2679         7.78347 
        1.69967         48.9793         7.71592 
        1.70581         49.0345         7.64921 
        1.71193         48.7015         7.58354 
        1.71806         48.3833         7.51851 
        1.72421         48.2987         7.45411 
        1.73035         48.0019         7.39053 
        1.73649         47.7389         7.32772 
        1.74262         47.6382         7.26568 
        1.74876         47.5006         7.20433 
        1.75489         47.2361         7.14381 
        1.76101          47.115         7.08401 
        1.76715         46.8952         7.02481 
        1.77329         46.7161         6.96621 
        1.77943         46.4458         6.90826 
        1.78557         46.3123         6.85106 
        1.79171         46.1338          6.7945 
        1.79785         45.9955         6.73857 
        1.80399         45.7874         6.68328 
        1.81012          45.718         6.62869 
        1.81625         45.2273         6.57473 
        1.82239         45.2483         6.52129 
        1.82853         44.9183         6.46848 
        1.83466         44.7733          6.4163 
        1.84078         44.5997         6.36476 
        1.84692         44.3826          6.3137 
        1.85306          44.266         6.26314 
         1.8592         44.1183         6.21321 
        1.86533          43.841         6.16386 
        1.87147         43.8027         6.11499 
        1.87761         43.7253         6.06663 
        1.88375         43.3933         6.01884 
        1.88988         43.3986         5.97163 
        1.89601         43.1043         5.92489 
        1.90215         42.9175         5.87862 
        1.90829         42.8651         5.83287 
        1.91442         42.5955         5.78759 
        1.92056         42.4977         5.74284 
         1.9267         42.2848         5.69852 
        1.93284         42.0972         5.65464 
        1.93897         41.9771         5.61131 
        1.94509           41.79         5.56852 
        1.95123         41.6953         5.52607 
        1.95737         41.4763         5.48403 
        1.96349         41.3858         5.44254 
        1.96964         41.1766         5.40136 
        1.97578         41.0451         5.36059 
        1.98192         40.9154         5.32033 
        1.98805         40.8112         5.28047 
        1.99419         40.5728         5.24102 
        2.00033         40.3953         5.20196 
        2.00647         40.3181          5.1633 
         2.0126         40.1938         5.12511 
        2.01874         40.0209         5.08724 
        2.02488         39.9414         5.04973 
        2.03101         39.7591         5.01266 
        2.03714         39.5909           4.976 
        2.04328         39.3701         4.93967 
        2.04941         39.2731         4.90372 
        2.05554         39.0737         4.86817 
        2.06167         39.0959         4.83292 
        2.06781          38.829         4.79801 
        2.07396         38.6691          4.7634 
        2.08009         38.6178         4.72919 
        2.08622         38.4424         4.69536 
        2.09237         38.2718         4.66179 
        2.09851         38.1111         4.62855 
        2.10464         38.0583         4.59568 
        2.11077         37.8337         4.56318 
        2.11691          37.744         4.53091 
        2.12305         37.5144         4.49896 
        2.12918         37.5378         4.46739 
        2.13531         37.3084         4.43613 
        2.14145         37.2657         4.40509 
         2.1476         37.0133         4.37431 
        2.15372         36.9205         4.34397 
        2.15985         36.7847          4.3139 
        2.16599         36.7193         4.28403 
        2.17213         36.5464         4.25447 
        2.17827         36.3589         4.22519 
         2.1844         36.2152         4.19622 
        2.19054         36.1255         4.16751 
        2.19666         36.0372         4.13911 
         2.2028         35.8559         4.11095 
        2.20893         35.7902         4.08304 
        2.21508         35.6619         4.05536 
        2.22122          35.488         4.02792 
        2.22736         35.3832          4.0008 
        2.23349         35.2273         3.97393 
        2.23962         35.1135         3.94729 
        2.24577         34.9901         3.92088 
         2.2519         34.8968         3.89475 
        2.25802         34.7648         3.86889 
        2.26417         34.6328          3.8432 
        2.27031         34.5695         3.81772 
        2.27644         34.4252         3.79255 
        2.28257         34.2421          3.7676 
        2.28872         34.1545         3.74283 
        2.29486         33.9959         3.71829 
        2.30099         33.9536         3.69402 
        2.30712         33.8239         3.66996 
        2.31326         33.7481         3.64607 
         2.3194         33.5808         3.62241 
        2.32553          33.412           3.599 
        2.33166         33.3354          3.5758 
         2.3378         33.1684         3.55278 
        2.34394         32.9828         3.52996 
        2.35007         32.9389         3.50736 
        2.35619         32.8762           3.485 
        2.36233         32.7847         3.46277 
        2.36848         32.6029         3.44069 
        2.37462         32.5156         3.41886 
        2.38075         32.4164         3.39723 
        2.38689         32.3219         3.37577 
        2.39303         32.1648          3.3545 
        2.39916         32.0288         3.33343 
        2.40529         31.8753         3.31255 
        2.41143         31.8782         3.29183 
        2.41757         31.6768         3.27128 
         2.4237         31.6632         3.25095 
        2.42983          31.466         3.23078 
        2.43598         31.4072         3.21074 
        2.44211         31.2999          3.1909 
        2.44823         31.1777         3.17127 
        2.45437         31.1022         3.15175 
        2.46052          31.004         3.13238 
        2.46665         30.9047         3.11321 
        2.47279         30.7813          3.0942 
        2.47892         30.6351         3.07534 
        2.48507         30.6023         3.05662 
         2.4912         30.5114          3.0381 
