# k  (h/Mpc)    P(k)  (Mpc/h)^3    P_linear(k)  (Mpc/h)^3
     0.00783031          2455.1         2457.66 
       0.013688         3024.05         3021.47 
       0.019231         3049.48         3044.32 
      0.0249154         2793.29         2798.82 
      0.0312784         2415.82         2408.81 
      0.0375637         2053.95         2042.45 
      0.0433917         1775.92         1775.59 
      0.0492413         1596.15         1585.17 
      0.0555754         1438.52         1446.03 
      0.0619321         1359.08         1343.69 
       0.067871          1251.4          1254.6 
      0.0738098         1154.25         1156.19 
      0.0800417          1036.4          1040.2 
      0.0862327         924.376         920.608 
      0.0921407         821.191         814.426 
      0.0982031         727.073         723.382 
       0.104506         666.054         652.435 
       0.110769         617.564         603.969 
       0.116806          579.97         571.952 
       0.122832         557.178         546.772 
       0.129052         525.792         520.712 
       0.135211         496.681         490.402 
       0.141259         465.773          455.61 
       0.147318          431.47         418.126 
       0.153489         392.508         381.093 
       0.159709         361.617         348.527 
       0.165845         340.933         323.019 
       0.171974         317.735         304.144 
       0.178125          305.12         290.348 
       0.184229         294.956         279.484 
        0.19034          279.61         269.137 
       0.196428         272.037         257.722 
       0.202534         261.239          244.56 
       0.208729         245.428         229.877 
       0.214876         229.547         215.075 
       0.220989          218.53         201.329 
       0.227147         204.665         189.362 
        0.23329         195.153         179.642 
       0.239377         188.974         171.983 
       0.245482         178.964         165.685 
       0.251667         176.104         159.972 
       0.257832           170.7         154.276 
       0.263955         163.999         148.232 
       0.270079         157.708         141.748 
        0.27624         153.037         134.993 
       0.282372         146.276         128.407 
        0.28843         139.907         122.367 
       0.294538         134.351         116.972 
       0.300721         130.967         112.269 
        0.30691         124.994         108.215 
       0.313033          121.84         104.643 
       0.319153         116.598         101.276 
       0.325316         114.659         97.9087 
        0.33145         110.597         94.4865 
       0.337538         107.943         91.0236 
       0.343633         104.061          87.567 
       0.349808         100.949         84.1816 
       0.355968         98.0883          81.024 
       0.362074         94.8891         78.1581 
       0.368217         92.3654         75.5521 
       0.374374         89.7432         73.1701 
       0.380519         87.5665         70.9567 
       0.386598         85.3963         68.8623 
       0.392688         83.6108         66.8019 
        0.39888         81.4621         64.7253 
       0.405048         79.4392         62.6776 
       0.411186         77.6362         60.6805 
       0.417313          75.224         58.7618 
       0.423458         73.4182         56.9382 
       0.429607         71.5499         55.2232 
       0.435692         69.2191         53.6377 
       0.441815          68.384         52.1379 
       0.447964         67.2897         50.7047 
       0.454126           64.55         49.3218 
       0.460267         63.6536         47.9833 
       0.466387         62.0548          46.678 
        0.47254         61.1319          45.394 
       0.478662         60.1655         44.1535 
       0.484765         58.3287         42.9614 
       0.490885         57.1509         41.8149 
       0.497035          56.474         40.7138 
       0.503198         54.9851         39.6633 
       0.509342         53.5628         38.6636 
       0.515458         52.7208         37.7072 
       0.521598         51.9035         36.7784 
       0.527764         50.9025         35.8728 
       0.533884         50.0908         34.9999 
           0.54         49.0489         34.1526 
       0.546137         48.3814          33.327 
       0.552299         47.6873         32.5239 
       0.558452          46.251         31.7496 
       0.564573         45.5346         31.0078 
       0.570708         44.9649         30.2924 
       0.576825         43.9161         29.6045 
       0.582926          43.141         28.9411 
       0.589034         42.1368         28.2968 
       0.595184         41.6135         27.6665 
       0.601379         40.9507         27.0501 
       0.607522         40.1378         26.4567 
       0.613639         39.8506         25.8833 
       0.619772         38.8002         25.3257 
       0.625918         38.6737         24.7837 
       0.632068         38.0255         24.2577 
       0.638161         37.3513          23.752 
         0.6443         36.6806         23.2575 
       0.650464         36.1119         22.7758 
       0.656582          35.789         22.3117 
       0.662703         35.1487         21.8606 
       0.668861         34.5695         21.4196 
       0.675024         34.0327         20.9905 
       0.681124         33.4313         20.5774 
       0.687237         32.9316         20.1746 
       0.693381         32.6894         19.7806 
       0.699536          31.892         19.3964 
       0.705665         31.8667         19.0241 
       0.711789         31.1698          18.662 
       0.717957         30.8058         18.3069 
        0.72409         30.3524         17.9633 
       0.730186         29.9219         17.6307 
       0.736317         29.6768         17.3048 
       0.742472         29.1417         16.9861 
       0.748622         28.8957         16.6759 
        0.75476         28.4491         16.3741 
       0.760888         28.0432         16.0803 
       0.767043         27.7527         15.7927 
       0.773185         27.2838         15.5127 
       0.779291         27.1773         15.2411 
       0.785407         26.8134         14.9757 
       0.791564         26.3613          14.715 
       0.797719         25.8211         14.4607 
       0.803834          25.797         14.2141 
       0.809972         25.5362         13.9724 
       0.816124         24.9918         13.7358 
       0.822261         24.8061         13.5054 
       0.828378          24.527          13.281 
       0.834502         24.3265         13.0615 
       0.840667         24.0012         12.8456 
       0.846816         23.6121         12.6353 
       0.852925         23.3942          12.431 
       0.859047         23.1381         12.2309 
       0.865192         22.9498         12.0345 
       0.871341         22.7862         11.8424 
       0.877463         22.3445         11.6553 
       0.883569         22.1083         11.4728 
       0.889708         21.8339         11.2934 
       0.895864         21.6716         11.1173 
       0.902008         21.4931         10.9453 
       0.908149         21.2709         10.7772 
       0.914301         21.1651         10.6123 
       0.920448         20.7693          10.451 
       0.926574         20.5831         10.2937 
       0.932687         20.3836           10.14 
       0.938823         20.1494          9.9889 
       0.944975         19.9361         9.84055 
       0.951105         19.7557         9.69577 
       0.957225         19.5602         9.55417 
       0.963368         19.4151         9.41494 
       0.969511          19.209         9.27849 
       0.975621         19.0699          9.1455 
       0.981748         18.8193         9.01479 
       0.987916          18.724         8.88583 
        0.99406         18.4466         8.75989 
        1.00019         18.2238         8.63666 
        1.00632         18.1749         8.51592 
        1.01246         18.0032         8.39734 
        1.01859         17.7486         8.28121 
        1.02471         17.6737         8.16745 
        1.03085          17.497         8.05544 
        1.03698         17.2449         7.94578 
        1.04314         17.1531         7.83772 
        1.04929         16.9475         7.73193 
        1.05541         16.7913         7.62853 
        1.06154         16.6682         7.52678 
        1.06769         16.5688         7.42674 
        1.07382         16.3561         7.32886 
        1.07993         16.2606         7.23297 
        1.08607         16.0993         7.13841 
        1.09222         15.9823         7.04545 
        1.09836         15.8141         6.95427 
        1.10449         15.6939         6.86481 
        1.11063         15.5408         6.77684 
        1.11677          15.479         6.69044 
         1.1229         15.3782         6.60572 
        1.12903         15.1653         6.52239 
        1.13518         14.9948         6.44044 
        1.14131         14.9341         6.35996 
        1.14745         14.8094          6.2809 
        1.15359         14.7313         6.20317 
        1.15973         14.5758         6.12674 
        1.16584         14.3789         6.05195 
        1.17197         14.3287          5.9783 
        1.17811         14.2212         5.90566 
        1.18424         14.1204         5.83445 
        1.19038         14.0401         5.76421 
        1.19652         13.9063         5.69515 
        1.20267         13.7734         5.62724 
        1.20881         13.7584         5.56045 
        1.21495         13.6389         5.49485 
        1.22108         13.4845         5.43032 
         1.2272         13.3848         5.36699 
        1.23334         13.2875         5.30453 
        1.23949         13.1346         5.24292 
        1.24562         13.1071         5.18246 
        1.25174         13.0121         5.12305 
        1.25789         12.9307          5.0644 
        1.26402         12.8534         5.00678 
        1.27014         12.7519         4.95019 
        1.27628         12.5846         4.89432 
        1.28244         12.5347         4.83921 
        1.28858         12.4978         4.78503 
        1.29471         12.3556          4.7318 
        1.30084         12.2546         4.67943 
        1.30697         12.2292         4.62778 
        1.31312         12.0814         4.57684 
        1.31925         11.9927         4.52683 
        1.32537         11.9675         4.47762 
        1.33151         11.8862         4.42897 
        1.33765         11.7832         4.38107 
        1.34378         11.7085         4.33398 
        1.34992         11.6194         4.28755 
        1.35606         11.5761          4.2417 
         1.3622            11.5          4.1966 
        1.36833          11.387         4.15227 
        1.37445          11.348         4.10861 
        1.38059         11.2901         4.06544 
        1.38675         11.1947         4.02279 
        1.39288         11.1518         3.98092 
        1.39901           11.04         3.93968 
        1.40515         11.0015         3.89892 
         1.4113         10.9452         3.85876 
        1.41742          10.869         3.81932 
        1.42355         10.7901         3.78036 
         1.4297         10.7507         3.74183 
        1.43585         10.6925         3.70386 
        1.44198          10.647         3.66655 
        1.44809         10.5667         3.62984 
        1.45423         10.4945         3.59349 
        1.46036         10.4373         3.55771 
        1.46649         10.3967          3.5224 
        1.47263         10.3216         3.48755 
        1.47877         10.2657         3.45319 
        1.48491         10.2143         3.41923 
        1.49104         10.1647         3.38581 
        1.49718         10.1131         3.35281 
        1.50333         10.0708          3.3202 
        1.50947         9.99266         3.28808 
         1.5156         9.96416         3.25645 
        1.52172         9.92058         3.22522 
        1.52787         9.85764         3.19435 
          1.534         9.79856         3.16392 
        1.54013         9.78066         3.13392 
        1.54627         9.69844         3.10425 
        1.55241         9.68698         3.07496 
        1.55855         9.62764          3.0461 
        1.56467         9.59001         3.01768 
         1.5708         9.54337         2.98955 
        1.57695         9.48964         2.96174 
        1.58308         9.44964         2.93434 
        1.58922         9.41784         2.90728 
        1.59535         9.40273         2.88056 
         1.6015         9.32966         2.85415 
        1.60764         9.27715         2.82808 
        1.61376          9.2605         2.80241 
        1.61989         9.24902         2.77704 
        1.62604         9.20719         2.75193 
        1.63218         9.19133         2.72714 
        1.63831         9.14374         2.70272 
        1.64444         9.10784         2.67859 
        1.65059           9.066          2.6547 
        1.65673         9.06078         2.63112 
        1.66285         8.99178          2.6079 
        1.66898          8.9629         2.58496 
        1.67512         8.95938         2.56224 
        1.68127         8.92788         2.53978 
         1.6874         8.91465         2.51763 
        1.69353         8.86426         2.49577 
        1.69967         8.84122         2.47411 
        1.70581         8.83782         2.45272 
        1.71193          8.7888         2.43166 
        1.71806         8.79176         2.41081 
        1.72421         8.75373         2.39016 
        1.73035         8.75315         2.36977 
        1.73649         8.73652         2.34963 
        1.74262         8.70104         2.32974 
        1.74876          8.7111         2.31007 
        1.75489         8.69146         2.29066 
        1.76101         8.65604         2.27148 
        1.76715         8.64522          2.2525 
        1.77329         8.61874         2.23371 
        1.77943         8.57767         2.21513 
        1.78557         8.61367         2.19679 
        1.79171         8.59012         2.17865 
        1.79785         8.58276         2.16072 
        1.80399         8.55991         2.14299 
        1.81012         8.56434         2.12549 
        1.81625          8.5611         2.10819 
        1.82239         8.52844         2.09105 
        1.82853         8.55198         2.07412 
        1.83466         8.54397         2.05739 
        1.84078         8.51916         2.04086 
        1.84692          8.5337         2.02449 
        1.85306         8.52206         2.00827 
         1.8592         8.51095         1.99227 
        1.86533         8.50847         1.97644 
        1.87147         8.52958         1.96077 
        1.87761         8.50732         1.94526 
        1.88375         8.52122         1.92994 
        1.88988         8.52001          1.9148 
        1.89601          8.5315         1.89981 
        1.90215         8.49828         1.88498 
        1.90829         8.52536         1.87031 
        1.91442         8.54555         1.85579 
        1.92056         8.54979         1.84144 
         1.9267          8.5346         1.82723 
        1.93284         8.55723         1.81316 
        1.93897         8.55191         1.79926 
        1.94509          8.5762         1.78554 
        1.95123         8.55841         1.77193 
        1.95737         8.57184         1.75845 
        1.96349         8.58516         1.74515 
        1.96964         8.60915         1.73195 
        1.97578          8.6115         1.71887 
        1.98192         8.61706         1.70596 
        1.98805         8.66387         1.69318 
        1.99419          8.6271         1.68053 
        2.00033         8.69413         1.66801 
        2.00647         8.68688         1.65561 
         2.0126         8.70938         1.64336 
        2.01874         8.74467         1.63122 
        2.02488         8.77508         1.61919 
        2.03101         8.76226         1.60731 
        2.03714         8.76966         1.59555 
        2.04328         8.82542          1.5839 
        2.04941          8.8367         1.57238 
        2.05554         8.83735         1.56098 
        2.06167         8.86385         1.54967 
        2.06781         8.89544         1.53848 
        2.07396         8.90536         1.52738 
        2.08009         8.95254         1.51641 
        2.08622         8.98948         1.50557 
        2.09237         9.00672          1.4948 
        2.09851         9.02929         1.48414 
        2.10464         9.05417          1.4736 
        2.11077         9.07202         1.46318 
        2.11691         9.10753         1.45284 
        2.12305         9.15653         1.44259 
        2.12918         9.18292         1.43247 
        2.13531         9.20996         1.42244 
        2.14145         9.22981         1.41249 
         2.1476         9.26885         1.40262 
        2.15372         9.29524         1.39289 
        2.15985         9.32536         1.38325 
        2.16599         9.36714         1.37367 
        2.17213         9.39831         1.36419 
        2.17827         9.43551         1.35481 
         2.1844         9.48617         1.34552 
        2.19054         9.51191         1.33631 
        2.19666         9.55502          1.3272 
         2.2028          9.5607         1.31817 
        2.20893         9.61194         1.30922 
        2.21508         9.64119         1.30035 
        2.22122         9.69497         1.29155 
        2.22736         9.74639         1.28285 
        2.23349         9.81297         1.27424 
        2.23962         9.81934          1.2657 
        2.24577         9.85194         1.25723 
         2.2519         9.90311         1.24885 
        2.25802         9.95009         1.24056 
        2.26417         9.95998         1.23232 
        2.27031         10.0394         1.22415 
        2.27644         10.0443         1.21608 
        2.28257         10.1026         1.20808 
        2.28872         10.1368         1.20014 
        2.29486         10.1749         1.19227 
        2.30099         10.2325         1.18449 
        2.30712         10.2708         1.17677 
        2.31326          10.298         1.16911 
         2.3194         10.3388         1.16152 
        2.32553         10.3914         1.15402 
        2.33166          10.464         1.14658 
         2.3378          10.478          1.1392 
        2.34394         10.5301         1.13188 
        2.35007         10.5538         1.12463 
        2.35619         10.6025         1.11746 
        2.36233         10.6497         1.11033 
        2.36848         10.6922         1.10326 
        2.37462         10.7539         1.09625 
        2.38075         10.8219         1.08932 
        2.38689         10.8527         1.08244 
        2.39303         10.8725         1.07562 
        2.39916         10.9264         1.06886 
        2.40529          10.978         1.06217 
        2.41143         11.0294         1.05552 
        2.41757         11.0927         1.04893 
         2.4237         11.1213         1.04241 
        2.42983         11.0934         1.03595 
        2.43598         11.1798         1.02952 
        2.44211         11.2483         1.02316 
        2.44823         11.2463         1.01686 
        2.45437         11.3057         1.01061 
        2.46052          11.384          1.0044 
        2.46665         11.4053        0.998248 
        2.47279         11.4625        0.992154 
        2.47892         11.4695        0.986107 
        2.48507           11.53        0.980104 
         2.4912         11.5745        0.974163 
