# k  (h/Mpc)    Pcb(k)  (Mpc/h)^3    Pcb_linear(k)  (Mpc/h)^3
     0.00783031         870.696         874.105 
       0.013688         1070.12         1075.72 
       0.019231         1081.34         1084.08 
      0.0249154          993.99         996.783 
      0.0312784         858.675         857.969 
      0.0375637         729.234         727.517 
      0.0433917         632.391         632.487 
      0.0492413         567.388         564.673 
      0.0555754         513.353         515.117 
      0.0619321         482.241          478.67 
       0.067871         446.181         446.936 
      0.0738098          411.63         411.883 
      0.0800417         370.274         370.567 
      0.0862327         329.375         327.964 
      0.0921407         291.828         290.139 
      0.0982031         258.751         257.706 
       0.104506         235.592         232.432 
       0.110769         218.431         215.167 
       0.116806         205.592         203.761 
       0.122832         197.351         194.791 
       0.129052         186.882         185.507 
       0.135211         176.341         174.709 
       0.141259         164.734         162.315 
       0.147318         152.178         148.961 
       0.153489         138.518         135.768 
       0.159709         127.021         124.166 
       0.165845         119.176         115.079 
       0.171974         111.148         108.354 
       0.178125         106.631          103.44 
       0.184229         103.003         99.5693 
        0.19034         98.2995          95.883 
       0.196428         95.0455         91.8164 
       0.202534         90.8956         87.1274 
       0.208729         85.2747         81.8966 
       0.214876         79.7213         76.6231 
       0.220989         75.3681         71.7262 
       0.227147         70.5657         67.4627 
        0.23329         67.1197         63.9996 
       0.239377         64.6433          61.271 
       0.245482         61.7525         59.0274 
       0.251667         60.3803         56.9922 
       0.257832         58.3196         54.9629 
       0.263955         56.0876         52.8098 
       0.270079         53.8468         50.4995 
        0.27624         51.8053         48.0932 
       0.282372         49.3983         45.7469 
        0.28843         47.1056          43.595 
       0.294538         45.2208         41.6727 
       0.300721         43.7643         39.9975 
        0.30691          41.847         38.5532 
       0.313033         40.6646         37.2804 
       0.319153         39.0278         36.0809 
       0.325316         38.2957         34.8813 
        0.33145         36.9988         33.6622 
       0.337538         35.7533         32.4285 
       0.343633         34.3962          31.197 
       0.349808         33.3406          29.991 
       0.355968         32.1784          28.866 
       0.362074         31.1204          27.845 
       0.368217         30.1933         26.9165 
       0.374374         29.2453          26.068 
       0.380519          28.495         25.2793 
       0.386598         27.7928         24.5332 
       0.392688         27.0884         23.7991 
        0.39888         26.3291         23.0593 
       0.405048         25.5907         22.3299 
       0.411186         24.9244         21.6183 
       0.417313         24.0902         20.9348 
       0.423458         23.4358         20.2851 
       0.429607         22.7666         19.6742 
       0.435692         22.1245         19.1092 
       0.441815         21.6399          18.575 
       0.447964         21.2479         18.0643 
       0.454126         20.5096         17.5716 
       0.460267          20.097         17.0948 
       0.466387         19.4989         16.6297 
        0.47254         19.1503         16.1723 
       0.478662         18.7504         15.7304 
       0.484765         18.1816         15.3056 
       0.490885         17.7532         14.8972 
       0.497035         17.5003         14.5049 
       0.503198          17.045         14.1307 
       0.509342         16.6044         13.7745 
       0.515458         16.2711         13.4338 
       0.521598         15.9374         13.1028 
       0.527764         15.5512         12.7802 
       0.533884         15.2855         12.4693 
           0.54         14.9324         12.1674 
       0.546137         14.6562         11.8733 
       0.552299         14.3843         11.5871 
       0.558452         13.9581         11.3113 
       0.564573         13.7454          11.047 
       0.570708         13.4917         10.7921 
       0.576825         13.1337         10.5471 
       0.582926         12.9268         10.3107 
       0.589034         12.5774         10.0812 
       0.595184         12.3887         9.85664 
       0.601379          12.122         9.63702 
       0.607522         11.9371         9.42562 
       0.613639         11.7801         9.22135 
       0.619772         11.4518         9.02268 
       0.625918         11.3567         8.82959 
       0.632068         11.1601         8.64217 
       0.638161         10.9088         8.46201 
         0.6443         10.6898         8.28585 
       0.650464         10.4749         8.11425 
       0.656582         10.3637         7.94888 
       0.662703         10.1761         7.78817 
       0.668861          10.007         7.63107 
       0.675024         9.80429          7.4782 
       0.681124         9.63457         7.33104 
       0.687237         9.49071         7.18751 
       0.693381         9.35656         7.04714 
       0.699536         9.10383         6.91026 
       0.705665         8.99756         6.77763 
       0.711789         8.85507         6.64862 
       0.717957         8.70792         6.52214 
        0.72409         8.55666          6.3997 
       0.730186         8.42929          6.2812 
       0.736317         8.34281         6.16511 
       0.742472         8.21031         6.05157 
       0.748622         8.06665         5.94104 
        0.75476         7.90886         5.83353 
       0.760888          7.8133         5.72887 
       0.767043         7.71769         5.62639 
       0.773185         7.55911         5.52664 
       0.779291         7.48474         5.42989 
       0.785407         7.36153         5.33534 
       0.791564         7.25417         5.24247 
       0.797719         7.13254         5.15186 
       0.803834         7.06839           5.064 
       0.809972         6.98311         4.97788 
       0.816124          6.8433         4.89359 
       0.822261         6.73571          4.8115 
       0.828378         6.64734         4.73156 
       0.834502         6.59507         4.65337 
       0.840667         6.45934         4.57646 
       0.846816         6.35989         4.50153 
       0.852925         6.30424         4.42875 
       0.859047          6.2219         4.35745 
       0.865192         6.15714         4.28749 
       0.871341         6.08346         4.21904 
       0.877463         5.99186          4.1524 
       0.883569          5.8848         4.08739 
       0.889708         5.80021         4.02344 
       0.895864         5.74548          3.9607 
       0.902008         5.66582         3.89945 
       0.908149         5.60661         3.83954 
       0.914301         5.50633          3.7808 
       0.920448         5.44286         3.72335 
       0.926574         5.36348          3.6673 
       0.932687         5.30952         3.61254 
       0.938823         5.24932         3.55871 
       0.944975         5.17859         3.50585 
       0.951105         5.12319         3.45427 
       0.957225         5.09127         3.40383 
       0.963368         5.01598         3.35422 
       0.969511         4.94727         3.30561 
       0.975621         4.87968         3.25823 
       0.981748         4.83643         3.21166 
       0.987916         4.77862         3.16572 
        0.99406         4.69521         3.12085 
        1.00019          4.6514         3.07695 
        1.00632         4.61203         3.03393 
        1.01246         4.55592         2.99169 
        1.01859         4.49804         2.95032 
        1.02471         4.44751         2.90978 
        1.03085         4.40082         2.86988 
        1.03698         4.34057         2.83081 
        1.04314         4.30784         2.79231 
        1.04929         4.25018         2.75462 
        1.05541         4.20203         2.71779 
        1.06154         4.16097         2.68154 
        1.06769          4.1316          2.6459 
        1.07382         4.06768         2.61102 
        1.07993         4.01323         2.57686 
        1.08607           3.995         2.54317 
        1.09222         3.94245         2.51006 
        1.09836         3.90932         2.47757 
        1.10449         3.86683          2.4457 
        1.11063         3.82017         2.41436 
        1.11677         3.78541         2.38358 
         1.1229         3.74108         2.35339 
        1.12903         3.70282         2.32371 
        1.13518         3.67016         2.29451 
        1.14131         3.61993         2.26584 
        1.14745          3.5689         2.23767 
        1.15359         3.55438         2.20998 
        1.15973         3.50714         2.18275 
        1.16584         3.48235          2.1561 
        1.17197         3.44641         2.12987 
        1.17811         3.41406         2.10399 
        1.18424          3.3861         2.07862 
        1.19038         3.35282         2.05359 
        1.19652         3.32098         2.02899 
        1.20267          3.2863         2.00479 
        1.20881         3.25889           1.981 
        1.21495         3.22716         1.95763 
        1.22108         3.19871         1.93464 
         1.2272          3.1773         1.91208 
        1.23334         3.13616         1.88982 
        1.23949         3.10068         1.86787 
        1.24562         3.08623         1.84634 
        1.25174         3.04896         1.82517 
        1.25789         3.02589         1.80428 
        1.26402         2.99209         1.78375 
        1.27014         2.96451         1.76359 
        1.27628          2.9518         1.74368 
        1.28244         2.91163         1.72405 
        1.28858         2.89295         1.70474 
        1.29471         2.86499         1.68578 
        1.30084         2.83662         1.66712 
        1.30697         2.82676         1.64872 
        1.31312         2.77685         1.63057 
        1.31925         2.76707         1.61276 
        1.32537         2.74464         1.59523 
        1.33151         2.72681         1.57789 
        1.33765         2.69288         1.56083 
        1.34378         2.67202         1.54405 
        1.34992         2.66196         1.52751 
        1.35606          2.6238         1.51117 
         1.3622           2.612         1.49511 
        1.36833         2.58818         1.47932 
        1.37445         2.56532         1.46376 
        1.38059         2.55231         1.44838 
        1.38675         2.53842         1.43318 
        1.39288         2.50783         1.41827 
        1.39901         2.48946         1.40357 
        1.40515         2.46932         1.38905 
         1.4113         2.45303         1.37475 
        1.41742         2.43433          1.3607 
        1.42355         2.42089         1.34682 
         1.4297          2.3961         1.33309 
        1.43585         2.38302         1.31956 
        1.44198          2.3721         1.30627 
        1.44809         2.34483         1.29319 
        1.45423         2.32546         1.28024 
        1.46036         2.31006         1.26749 
        1.46649          2.2923         1.25491 
        1.47263         2.27758          1.2425 
        1.47877         2.25828         1.23025 
        1.48491         2.24256         1.21816 
        1.49104         2.23277         1.20625 
        1.49718          2.2188         1.19449 
        1.50333         2.20552         1.18287 
        1.50947         2.19011         1.17143 
         1.5156         2.17375         1.16016 
        1.52172         2.16172         1.14904 
        1.52787         2.14387         1.13804 
          1.534         2.13222          1.1272 
        1.54013         2.11925         1.11651 
        1.54627         2.09979         1.10594 
        1.55241         2.08791         1.09551 
        1.55855         2.08013         1.08522 
        1.56467         2.06699          1.0751 
         1.5708         2.04803         1.06508 
        1.57695         2.03705         1.05517 
        1.58308         2.03013         1.04541 
        1.58922         2.01677         1.03577 
        1.59535         2.00785         1.02625 
         1.6015         1.99868         1.01684 
        1.60764         1.98726         1.00755 
        1.61376         1.97596        0.998406 
        1.61989         1.96115        0.989367 
        1.62604         1.95355         0.98042 
        1.63218         1.95179         0.97159 
        1.63831         1.93234         0.96289 
        1.64444         1.92259        0.954293 
        1.65059          1.9221        0.945781 
        1.65673         1.91163        0.937382 
        1.66285         1.90055        0.929109 
        1.66898         1.89929        0.920933 
        1.67512         1.88742         0.91284 
        1.68127         1.87784        0.904838 
         1.6874         1.87497        0.896949 
        1.69353         1.86538        0.889159 
        1.69967         1.86177        0.881443 
        1.70581         1.86103        0.873822 
        1.71193         1.85373         0.86632 
        1.71806         1.84658         0.85889 
        1.72421         1.84354        0.851533 
        1.73035         1.84305        0.844271 
        1.73649         1.83579        0.837095 
        1.74262         1.83321        0.830009 
        1.74876         1.82874           0.823 
        1.75489         1.82255        0.816086 
        1.76101         1.82013        0.809254 
        1.76715         1.82314        0.802492 
        1.77329         1.81609        0.795798 
        1.77943         1.81339        0.789178 
        1.78557         1.81249        0.782644 
        1.79171         1.81488        0.776182 
        1.79785         1.81126        0.769793 
        1.80399         1.81678        0.763477 
        1.81012         1.81775         0.75724 
        1.81625         1.81722        0.751076 
        1.82239          1.8244        0.744972 
        1.82853         1.81721        0.738939 
        1.83466         1.81549        0.732978 
        1.84078          1.8191         0.72709 
        1.84692         1.82282        0.721257 
        1.85306         1.82728        0.715481 
         1.8592         1.82816        0.709778 
        1.86533         1.83779         0.70414 
        1.87147         1.84611        0.698557 
        1.87761         1.84476        0.693032 
        1.88375          1.8425        0.687574 
        1.88988         1.85068         0.68218 
        1.89601         1.85888        0.676841 
        1.90215         1.86296        0.671555 
        1.90829         1.86981        0.666328 
        1.91442         1.87667        0.661156 
        1.92056         1.88456        0.656044 
         1.9267         1.89075        0.650981 
        1.93284          1.8989        0.645968 
        1.93897         1.90772        0.641018 
        1.94509         1.92384         0.63613 
        1.95123         1.92781        0.631281 
        1.95737         1.93818        0.626479 
        1.96349         1.95337        0.621739 
        1.96964         1.95693        0.617035 
        1.97578         1.97183        0.612377 
        1.98192         1.98165        0.607777 
        1.98805         1.99093        0.603224 
        1.99419         2.00195        0.598718 
        2.00033         2.01972        0.594255 
        2.00647            2.04         0.58984 
         2.0126           2.043        0.585476 
        2.01874         2.05958         0.58115 
        2.02488          2.0796        0.576865 
        2.03101         2.09391         0.57263 
        2.03714         2.10696        0.568442 
        2.04328         2.11749        0.564292 
        2.04941         2.14206        0.560186 
        2.05554         2.16497        0.556124 
        2.06167         2.17802        0.552097 
        2.06781         2.19277         0.54811 
        2.07396          2.2179        0.544156 
        2.08009         2.23953        0.540248 
        2.08622         2.25439        0.536383 
        2.09237         2.27701        0.532549 
        2.09851         2.30024        0.528751 
        2.10464          2.3243        0.524996 
        2.11077         2.35001        0.521283 
        2.11691         2.37188        0.517597 
        2.12305         2.39276        0.513947 
        2.12918          2.4216        0.510341 
        2.13531         2.44298        0.506769 
        2.14145         2.46636        0.503223 
         2.1476         2.49853        0.499707 
        2.15372         2.53353        0.496242 
        2.15985         2.54841        0.492806 
        2.16599         2.58597        0.489394 
        2.17213         2.61675        0.486017 
        2.17827         2.64736        0.482673 
         2.1844         2.68388        0.479363 
        2.19054         2.71209        0.476083 
        2.19666         2.73903        0.472839 
         2.2028          2.7536        0.469622 
        2.20893         2.80521        0.466434 
        2.21508         2.82299        0.463271 
        2.22122         2.88867        0.460137 
        2.22736         2.93068        0.457038 
        2.23349         2.95498        0.453969 
        2.23962         2.99556        0.450926 
        2.24577         3.03052        0.447909 
         2.2519         3.07524        0.444924 
        2.25802         3.11137         0.44197 
        2.26417         3.15728        0.439035 
        2.27031         3.20748        0.436125 
        2.27644         3.24675        0.433249 
        2.28257         3.28602        0.430399 
        2.28872         3.32618         0.42757 
        2.29486         3.38178        0.424766 
        2.30099         3.42789        0.421994 
        2.30712         3.48298        0.419245 
        2.31326         3.53537        0.416516 
         2.3194         3.57274        0.413813 
        2.32553         3.62734        0.411138 
        2.33166         3.68222        0.408489 
         2.3378         3.72077        0.405859 
        2.34394          3.8119        0.403251 
        2.35007         3.83906         0.40067 
        2.35619         3.89521        0.398115 
        2.36233         3.98202        0.395576 
        2.36848         4.01895        0.393054 
        2.37462         4.10613        0.390559 
        2.38075         4.15685        0.388089 
        2.38689         4.23754        0.385637 
        2.39303         4.27246        0.383207 
        2.39916         4.35587        0.380801 
        2.40529         4.40461        0.378416 
        2.41143          4.4735        0.376049 
        2.41757         4.56482        0.373701 
         2.4237          4.6168        0.371378 
        2.42983         4.69638        0.369075 
        2.43598         4.73971        0.366785 
        2.44211         4.84492        0.364518 
        2.44823         4.92808        0.362276 
        2.45437         4.99005        0.360046 
        2.46052         5.07659        0.357833 
        2.46665         5.16255        0.355643 
        2.47279         5.22326        0.353472 
        2.47892         5.31126        0.351318 
        2.48507         5.41835        0.349179 
         2.4912         5.50249        0.347063 
