# k  (h/Mpc)    Pcb(k)  (Mpc/h)^3    Pcb_linear(k)  (Mpc/h)^3
     0.00783031         428.131         429.954 
       0.013688         526.217         529.294 
       0.019231         532.131         533.501 
      0.0249154         489.644          490.58 
      0.0312784         422.791         422.285 
      0.0375637         358.942         358.091 
      0.0433917         311.632         311.322 
      0.0492413          279.27         277.947 
      0.0555754         253.209         253.558 
      0.0619321          237.11         235.619 
       0.067871         219.921             220 
      0.0738098         202.849         202.746 
      0.0800417         182.577          182.41 
      0.0862327         162.164         161.439 
      0.0921407         143.596          142.82 
      0.0982031         127.392         126.855 
       0.104506         115.656         114.415 
       0.110769         107.194         105.916 
       0.116806         101.045         100.301 
       0.122832         96.9054         95.8862 
       0.129052         91.9043         91.3163 
       0.135211         86.6604         86.0011 
       0.141259         80.8124         79.8999 
       0.147318         74.5283         73.3265 
       0.153489         67.8643         66.8322 
       0.159709          62.144         61.1213 
       0.165845          58.125          56.648 
       0.171974         54.2976         53.3379 
       0.178125         52.0247         50.9187 
       0.184229         50.2178         49.0134 
        0.19034         48.0521         47.1988 
       0.196428         46.3204         45.1971 
       0.202534            44.2         42.8889 
       0.208729         41.4565          40.314 
       0.214876         38.7535         37.7181 
       0.220989         36.5286         35.3076 
       0.227147         34.2196         33.2089 
        0.23329         32.5134         31.5042 
       0.239377         31.2312          30.161 
       0.245482          29.943         29.0565 
       0.251667         29.1657         28.0547 
       0.257832         28.1312         27.0558 
       0.263955          27.055         25.9959 
       0.270079         25.9512         24.8587 
        0.27624         24.8712         23.6742 
       0.282372          23.683         22.5192 
        0.28843         22.5706         21.4599 
       0.294538         21.6405         20.5137 
       0.300721         20.8761          19.689 
        0.30691         19.9975          18.978 
       0.313033         19.3993         18.3515 
       0.319153         18.6574          17.761 
       0.325316           18.24         17.1705 
        0.33145         17.6307         16.5704 
       0.337538         16.9911         15.9631 
       0.343633         16.3298         15.3569 
       0.349808         15.7964         14.7633 
       0.355968         15.2224         14.2094 
       0.362074         14.7161         13.7069 
       0.368217         14.2474         13.2498 
       0.374374         13.7847         12.8321 
       0.380519         13.4194         12.4439 
       0.386598         13.0742         12.0766 
       0.392688         12.7148         11.7153 
        0.39888         12.3433         11.3511 
       0.405048         11.9735          10.992 
       0.411186         11.6348         10.6418 
       0.417313         11.2466         10.3053 
       0.423458         10.9326         9.98546 
       0.429607         10.6017         9.68473 
       0.435692         10.3112         9.40664 
       0.441815         10.0503         9.14364 
       0.447964         9.84197         8.89227 
       0.454126           9.525         8.64975 
       0.460267         9.29948         8.41502 
       0.466387         9.02882          8.1861 
        0.47254         8.83196         7.96092 
       0.478662         8.62708         7.74337 
       0.484765         8.37216          7.5343 
       0.490885         8.16936         7.33323 
       0.497035         8.02051         7.14016 
       0.503198         7.81109         6.95591 
       0.509342          7.6181         6.78059 
       0.515458         7.44194         6.61286 
       0.521598         7.27253         6.44996 
       0.527764         7.08416         6.29116 
       0.533884         6.95676         6.13807 
           0.54         6.78752         5.98948 
       0.546137         6.64932         5.84469 
       0.552299         6.50884         5.70384 
       0.558452         6.32532         5.56806 
       0.564573         6.21171         5.43797 
       0.570708         6.08536         5.31249 
       0.576825         5.93063         5.19187 
       0.582926         5.83168         5.07552 
       0.589034         5.66934         4.96252 
       0.595184         5.56959         4.85199 
       0.601379         5.44859         4.74389 
       0.607522         5.35726         4.63982 
       0.613639         5.27252         4.53927 
       0.619772         5.13073         4.44148 
       0.625918         5.06063         4.34643 
       0.632068         4.97123         4.25417 
       0.638161         4.85937         4.16548 
         0.6443         4.75945         4.07877 
       0.650464          4.6552         3.99429 
       0.656582         4.58922         3.91289 
       0.662703         4.50542         3.83378 
       0.668861         4.43176         3.75644 
       0.675024         4.33544         3.68119 
       0.681124         4.25416         3.60875 
       0.687237         4.18923          3.5381 
       0.693381         4.11525           3.469 
       0.699536         4.00996         3.40162 
       0.705665          3.9501         3.33633 
       0.711789         3.88913         3.27283 
       0.717957         3.81681         3.21057 
        0.72409          3.7484          3.1503 
       0.730186         3.68688         3.09197 
       0.736317          3.6424         3.03482 
       0.742472         3.58205         2.97893 
       0.748622         3.51151         2.92451 
        0.75476         3.43955         2.87159 
       0.760888         3.39235         2.82007 
       0.767043         3.35273         2.76963 
       0.773185         3.28158         2.72052 
       0.779291         3.23736          2.6729 
       0.785407         3.18293         2.62636 
       0.791564         3.13621         2.58064 
       0.797719         3.08913         2.53604 
       0.803834         3.04811         2.49279 
       0.809972         2.99934         2.45039 
       0.816124           2.945          2.4089 
       0.822261         2.89294         2.36849 
       0.828378         2.85567         2.32914 
       0.834502         2.82623         2.29065 
       0.840667         2.76572          2.2528 
       0.846816         2.72389         2.21591 
       0.852925         2.69648         2.18008 
       0.859047         2.66091         2.14498 
       0.865192         2.62075         2.11055 
       0.871341         2.58403         2.07685 
       0.877463         2.55229         2.04405 
       0.883569         2.50201         2.01204 
       0.889708          2.4692         1.98056 
       0.895864         2.43776         1.94968 
       0.902008         2.39673         1.91953 
       0.908149         2.36983         1.89004 
       0.914301         2.32319         1.86112 
       0.920448         2.29748         1.83284 
       0.926574         2.26105         1.80525 
       0.932687         2.23216          1.7783 
       0.938823         2.21178          1.7518 
       0.944975          2.1819         1.72578 
       0.951105         2.15162         1.70039 
       0.957225         2.13601         1.67556 
       0.963368         2.10066         1.65114 
       0.969511         2.06861         1.62721 
       0.975621         2.03859         1.60389 
       0.981748         2.02092         1.58096 
       0.987916         1.99254         1.55835 
        0.99406         1.95942         1.53626 
        1.00019         1.94462         1.51465 
        1.00632         1.91429         1.49347 
        1.01246         1.88946         1.47268 
        1.01859         1.87143         1.45231 
        1.02471         1.84532         1.43236 
        1.03085         1.82744         1.41272 
        1.03698         1.79934         1.39349 
        1.04314         1.78227         1.37454 
        1.04929         1.75792         1.35598 
        1.05541         1.73865         1.33785 
        1.06154         1.71745            1.32 
        1.06769         1.69776         1.30246 
        1.07382         1.67842         1.28529 
        1.07993         1.65265         1.26848 
        1.08607         1.64243         1.25189 
        1.09222         1.61841         1.23559 
        1.09836         1.60662          1.2196 
        1.10449         1.58785         1.20391 
        1.11063         1.56448         1.18848 
        1.11677         1.54547         1.17333 
         1.1229         1.52666         1.15847 
        1.12903         1.51093         1.14386 
        1.13518         1.49828         1.12949 
        1.14131         1.47651         1.11537 
        1.14745         1.45299         1.10151 
        1.15359         1.44656         1.08788 
        1.15973         1.42417         1.07447 
        1.16584         1.41731         1.06136 
        1.17197         1.39965         1.04844 
        1.17811         1.38611          1.0357 
        1.18424         1.37572         1.02321 
        1.19038         1.35576         1.01089 
        1.19652         1.34087        0.998785 
        1.20267         1.33081        0.986874 
        1.20881         1.31333         0.97516 
        1.21495         1.30288        0.963656 
        1.22108         1.28945         0.95234 
         1.2272          1.2794        0.941233 
        1.23334         1.26333        0.930279 
        1.23949         1.24797        0.919474 
        1.24562         1.23983        0.908872 
        1.25174          1.2257        0.898453 
        1.25789         1.21559        0.888167 
        1.26402          1.1996        0.878061 
        1.27014         1.18879        0.868138 
        1.27628         1.18264        0.858339 
        1.28244         1.16434        0.848674 
        1.28858         1.15473        0.839172 
        1.29471         1.14749        0.829836 
        1.30084         1.13435        0.820653 
        1.30697         1.12457        0.811595 
        1.31312         1.10693        0.802661 
        1.31925         1.10169        0.793891 
        1.32537         1.09237        0.785261 
        1.33151         1.08389        0.776728 
        1.33765         1.07355        0.768328 
        1.34378         1.06089         0.76007 
        1.34992         1.05544        0.751927 
        1.35606         1.04273        0.743886 
         1.3622          1.0355        0.735977 
        1.36833         1.02517        0.728203 
        1.37445         1.01414        0.720545 
        1.38059          1.0068        0.712975 
        1.38675         1.00375        0.705495 
        1.39288         0.99127        0.698153 
        1.39901        0.982668        0.690919 
        1.40515        0.975793        0.683772 
         1.4113        0.966516        0.676729 
        1.41742        0.958441        0.669812 
        1.42355        0.953829         0.66298 
         1.4297        0.942039        0.656222 
        1.43585         0.93667        0.649562 
        1.44198         0.93297         0.64302 
        1.44809        0.920975        0.636581 
        1.45423        0.913714        0.630207 
        1.46036        0.906688        0.623932 
        1.46649        0.900479         0.61774 
        1.47263        0.892522        0.611628 
        1.47877         0.88726        0.605601 
        1.48491        0.879707        0.599647 
        1.49104        0.872895        0.593785 
        1.49718        0.868793        0.587997 
        1.50333        0.862089        0.582278 
        1.50947        0.855642        0.576646 
         1.5156        0.849074        0.571098 
        1.52172        0.843788        0.565622 
        1.52787        0.836606        0.560208 
          1.534         0.83148        0.554871 
        1.54013        0.825038        0.549609 
        1.54627        0.819169        0.544407 
        1.55241        0.813979        0.539271 
        1.55855        0.807563        0.534208 
        1.56467        0.803978        0.529225 
         1.5708         0.79638        0.524292 
        1.57695        0.792212        0.519414 
        1.58308        0.788232        0.514609 
        1.58922        0.782432        0.509863 
        1.59535        0.777709        0.505178 
         1.6015        0.773256        0.500546 
        1.60764        0.768184        0.495974 
        1.61376        0.761817        0.491472 
        1.61989        0.758864        0.487023 
        1.62604        0.757742        0.482619 
        1.63218        0.751992        0.478272 
        1.63831         0.74672        0.473989 
        1.64444        0.743766        0.469757 
        1.65059         0.74021        0.465567 
        1.65673        0.735138        0.461433 
        1.66285        0.734604         0.45736 
        1.66898        0.732491        0.453336 
        1.67512        0.728384        0.449352 
        1.68127        0.725649        0.445413 
         1.6874        0.724987        0.441529 
        1.69353        0.721153        0.437694 
        1.69967        0.720032        0.433896 
        1.70581        0.716902        0.430145 
        1.71193        0.715211        0.426452 
        1.71806        0.713282        0.422795 
        1.72421        0.711876        0.419173 
        1.73035        0.711754        0.415598 
        1.73649        0.711824        0.412066 
        1.74262        0.710915        0.408577 
        1.74876        0.709411        0.405127 
        1.75489        0.708954        0.401724 
        1.76101        0.706205        0.398361 
        1.76715         0.70691        0.395032 
        1.77329        0.708478        0.391737 
        1.77943        0.705342        0.388478 
        1.78557         0.70775        0.385262 
        1.79171        0.709703        0.382081 
        1.79785        0.710262        0.378936 
        1.80399        0.711126        0.375827 
        1.81012         0.71363        0.372757 
        1.81625         0.71478        0.369722 
        1.82239        0.718457        0.366718 
        1.82853        0.718168        0.363748 
        1.83466         0.71976        0.360814 
        1.84078        0.720657        0.357915 
        1.84692        0.723268        0.355044 
        1.85306        0.727453        0.352201 
         1.8592        0.728673        0.349393 
        1.86533        0.734058        0.346618 
        1.87147        0.739464        0.343869 
        1.87761        0.742995         0.34115 
        1.88375        0.742769        0.338463 
        1.88988        0.746182        0.335808 
        1.89601        0.752436         0.33318 
        1.90215        0.755577        0.330578 
        1.90829        0.760447        0.328005 
        1.91442        0.765417        0.325459 
        1.92056        0.771039        0.322942 
         1.9267         0.77514         0.32045 
        1.93284        0.778603        0.317982 
        1.93897        0.784191        0.315545 
        1.94509        0.795245        0.313139 
        1.95123        0.798058        0.310752 
        1.95737        0.805191        0.308388 
        1.96349        0.815862        0.306055 
        1.96964        0.820335         0.30374 
        1.97578        0.826844        0.301447 
        1.98192        0.836667        0.299183 
        1.98805        0.846119        0.296941 
        1.99419        0.846785        0.294723 
        2.00033        0.859682        0.292526 
        2.00647        0.869658        0.290353 
         2.0126         0.87679        0.288205 
        2.01874        0.887513        0.286075 
        2.02488        0.894281        0.283966 
        2.03101        0.905578        0.281881 
        2.03714        0.917218         0.27982 
        2.04328        0.929013        0.277776 
        2.04941        0.935969        0.275755 
        2.05554        0.949054        0.273756 
        2.06167          0.9599        0.271774 
        2.06781        0.974692        0.269811 
        2.07396        0.985087        0.267865 
        2.08009        0.994087        0.265941 
        2.08622         1.01271        0.264038 
        2.09237         1.02286        0.262151 
        2.09851         1.03699        0.260281 
        2.10464         1.05025        0.258433 
        2.11077         1.06458        0.256605 
        2.11691         1.08249        0.254791 
        2.12305          1.0955        0.252994 
        2.12918         1.10952        0.251219 
        2.13531         1.13376        0.249461 
        2.14145         1.14252        0.247715 
         2.1476         1.16255        0.245984 
        2.15372         1.18328        0.244279 
        2.15985         1.19008        0.242587 
        2.16599         1.21484        0.240907 
        2.17213         1.23561        0.239245 
        2.17827         1.25462        0.237599 
         2.1844         1.28153         0.23597 
        2.19054         1.29907        0.234355 
        2.19666         1.31812        0.232758 
         2.2028         1.33423        0.231175 
        2.20893         1.35479        0.229605 
        2.21508         1.37667        0.228048 
        2.22122         1.41099        0.226506 
        2.22736         1.43386         0.22498 
        2.23349         1.44675        0.223469 
        2.23962         1.47669        0.221972 
        2.24577         1.50432        0.220486 
         2.2519         1.53349        0.219017 
        2.25802         1.55438        0.217563 
        2.26417         1.58787        0.216118 
        2.27031          1.6179        0.214685 
        2.27644         1.64063         0.21327 
        2.28257          1.6724        0.211867 
        2.28872         1.70402        0.210474 
        2.29486         1.73486        0.209094 
        2.30099         1.76599        0.207729 
        2.30712         1.80172        0.206376 
        2.31326         1.83978        0.205033 
         2.3194         1.87034        0.203702 
        2.32553         1.90163        0.202386 
        2.33166         1.93864        0.201081 
         2.3378         1.97617        0.199787 
        2.34394          2.0242        0.198503 
        2.35007         2.04626        0.197233 
        2.35619          2.0975        0.195975 
        2.36233         2.13848        0.194725 
        2.36848         2.18381        0.193484 
        2.37462         2.22285        0.192255 
        2.38075         2.27572        0.191039 
        2.38689          2.3221        0.189833 
        2.39303         2.35812        0.188636 
        2.39916         2.40422        0.187452 
        2.40529          2.4669        0.186278 
        2.41143         2.49548        0.185113 
        2.41757         2.56187        0.183957 
         2.4237         2.61879        0.182813 
        2.42983         2.66193         0.18168 
        2.43598         2.70977        0.180552 
        2.44211         2.76881        0.179437 
        2.44823         2.83665        0.178333 
        2.45437         2.89003        0.177235 
        2.46052         2.95522        0.176146 
        2.46665           3.036        0.175068 
        2.47279         3.07569        0.173999 
        2.47892         3.14419        0.172939 
        2.48507         3.22006        0.171886 
         2.4912         3.28602        0.170844 
