# k  (h/Mpc)    Pcb(k)  (Mpc/h)^3    Pcb_linear(k)  (Mpc/h)^3
     0.00783031         706.228         709.007 
       0.013688         867.854         872.629 
       0.019231         877.188         879.455 
      0.0249154         806.668         808.657 
      0.0312784         696.739         696.055 
      0.0375637         591.631         590.228 
      0.0433917         513.267         513.134 
      0.0492413         460.359         458.119 
      0.0555754         416.779         417.917 
      0.0619321         391.148         388.348 
       0.067871         362.173         362.603 
      0.0738098         334.122         334.164 
      0.0800417         300.622         300.645 
      0.0862327         267.296         266.081 
      0.0921407         236.766         235.393 
      0.0982031         209.974          209.08 
       0.104506         191.006         188.575 
       0.110769         177.081         174.568 
       0.116806         166.748         165.314 
       0.122832         160.024         158.037 
       0.129052         151.609         150.505 
       0.135211         143.033         141.744 
       0.141259         133.541         131.688 
       0.147318         123.302         120.854 
       0.153489         112.248         110.151 
       0.159709         102.878         100.738 
       0.165845         96.4385         93.3652 
       0.171974         89.9794         87.9097 
       0.178125         86.2936         83.9223 
       0.184229         83.3413         80.7821 
        0.19034          79.609         77.7914 
       0.196428         76.8997         74.4921 
       0.202534         73.4916         70.6879 
       0.208729         68.9392          66.444 
       0.214876         64.4504         62.1656 
       0.220989         60.8694         58.1926 
       0.227147         57.0016         54.7336 
        0.23329         54.1981          51.924 
       0.239377         52.1551         49.7102 
       0.245482         49.8815         47.8899 
       0.251667         48.7176         46.2387 
       0.257832         47.0326         44.5923 
       0.263955         45.2357         42.8455 
       0.270079         43.4171         40.9711 
        0.27624         41.7186         39.0188 
       0.282372         39.7616         37.1152 
        0.28843         37.9088         35.3694 
       0.294538         36.3809         33.8098 
       0.300721          35.175         32.4506 
        0.30691         33.6487         31.2788 
       0.313033         32.6831         30.2462 
       0.319153         31.3889          29.273 
       0.325316          30.767         28.2998 
        0.33145         29.7322         27.3107 
       0.337538         28.6997         26.3098 
       0.343633         27.6024         25.3106 
       0.349808         26.7417         24.3322 
       0.355968          25.794         23.4194 
       0.362074         24.9435         22.5911 
       0.368217         24.1851         21.8378 
       0.374374         23.4172         21.1494 
       0.380519         22.8099         20.5096 
       0.386598         22.2418         19.9042 
       0.392688         21.6629         19.3086 
        0.39888         21.0492         18.7084 
       0.405048         20.4453         18.1166 
       0.411186         19.8979         17.5393 
       0.417313         19.2328         16.9848 
       0.423458         18.7038         16.4576 
       0.429607          18.159          15.962 
       0.435692         17.6557         15.5036 
       0.441815         17.2458         15.0702 
       0.447964         16.9213         14.6559 
       0.454126         16.3497         14.2562 
       0.460267         16.0019         13.8693 
       0.466387         15.5259          13.492 
        0.47254         15.2314         13.1209 
       0.478662         14.9001         12.7623 
       0.484765         14.4523         12.4177 
       0.490885         14.1083         12.0863 
       0.497035         13.8928         11.7681 
       0.503198         13.5302         11.4644 
       0.509342         13.1851         11.1755 
       0.515458         12.9085          10.899 
       0.521598         12.6356         10.6306 
       0.527764         12.3211         10.3688 
       0.533884          12.105         10.1165 
           0.54          11.822         9.87161 
       0.546137         11.5958         9.63297 
       0.552299         11.3712         9.40084 
       0.558452         11.0395         9.17704 
       0.564573         10.8635         8.96264 
       0.570708         10.6561         8.75583 
       0.576825          10.374         8.55703 
       0.582926         10.2099         8.36526 
       0.589034         9.93203         8.17901 
       0.595184         9.77478         7.99686 
       0.601379         9.56131         7.81868 
       0.607522         9.41259         7.64717 
       0.613639         9.28154         7.48144 
       0.619772         9.02556         7.32026 
       0.625918         8.93569          7.1636 
       0.632068         8.78064         7.01154 
       0.638161         8.58022         6.86537 
         0.6443         8.40583         6.72245 
       0.650464         8.23276         6.58323 
       0.656582         8.13576         6.44906 
       0.662703         7.98836         6.31868 
       0.668861         7.85894         6.19122 
       0.675024         7.69427         6.06719 
       0.681124         7.55812          5.9478 
       0.687237         7.44634         5.83135 
       0.693381         7.33041         5.71746 
       0.699536         7.13333         5.60642 
       0.705665         7.04398         5.49881 
       0.711789         6.93296         5.39414 
       0.717957          6.8129         5.29152 
        0.72409         6.69234         5.19219 
       0.730186         6.58998         5.09605 
       0.736317         6.52113         5.00186 
       0.742472          6.4157         4.90974 
       0.748622         6.29784         4.82006 
        0.75476         6.17287         4.73284 
       0.760888         6.09604         4.64793 
       0.767043         6.02094         4.56478 
       0.773185         5.89673         4.48386 
       0.779291         5.83051         4.40537 
       0.785407         5.73433         4.32865 
       0.791564         5.65125          4.2533 
       0.797719         5.55958          4.1798 
       0.803834           5.501         4.10851 
       0.809972         5.42991         4.03864 
       0.816124         5.32338         3.97026 
       0.822261         5.23505         3.90365 
       0.828378         5.16857         3.83879 
       0.834502         5.12364         3.77536 
       0.840667         5.01503         3.71296 
       0.846816         4.93878         3.65217 
       0.852925         4.89415         3.59312 
       0.859047         4.82927         3.53527 
       0.865192         4.77302         3.47852 
       0.871341         4.71247         3.42298 
       0.877463         4.64475         3.36892 
       0.883569         4.55862         3.31617 
       0.889708          4.4951         3.26428 
       0.895864         4.44805         3.21339 
       0.902008         4.38127         3.16369 
       0.908149         4.33474         3.11508 
       0.914301         4.25285         3.06742 
       0.920448         4.20448         3.02082 
       0.926574         4.14269         2.97535 
       0.932687         4.09786         2.93091 
       0.938823         4.05435         2.88724 
       0.944975         4.00007         2.84436 
       0.951105         3.95361         2.80251 
       0.957225         3.92807         2.76158 
       0.963368         3.86716         2.72134 
       0.969511         3.81161          2.6819 
       0.975621         3.75773         2.64346 
       0.981748         3.72622         2.60568 
       0.987916         3.67783          2.5684 
        0.99406         3.61359           2.532 
        1.00019         3.58425         2.49638 
        1.00632         3.54389         2.46148 
        1.01246         3.50094         2.42721 
        1.01859         3.46083         2.39364 
        1.02471         3.41661         2.36076 
        1.03085          3.3816         2.32838 
        1.03698         3.33454         2.29669 
        1.04314         3.30656         2.26545 
        1.04929         3.26243         2.23487 
        1.05541          3.2251         2.20499 
        1.06154         3.19332         2.17558 
        1.06769         3.16564         2.14666 
        1.07382         3.11993         2.11837 
        1.07993         3.07446         2.09065 
        1.08607         3.05987         2.06332 
        1.09222         3.01867         2.03645 
        1.09836         2.99512         2.01009 
        1.10449         2.96138         1.98424 
        1.11063         2.92345         1.95881 
        1.11677         2.89265         1.93384 
         1.1229         2.85787         1.90935 
        1.12903         2.82839         1.88526 
        1.13518         2.80572         1.86158 
        1.14131         2.76582         1.83831 
        1.14745         2.72462         1.81546 
        1.15359         2.71408           1.793 
        1.15973         2.67403          1.7709 
        1.16584         2.66016         1.74928 
        1.17197         2.63072           1.728 
        1.17811         2.60299           1.707 
        1.18424         2.58294         1.68642 
        1.19038         2.55348         1.66611 
        1.19652         2.52833         1.64616 
        1.20267         2.50506         1.62652 
        1.20881         2.47864         1.60722 
        1.21495         2.45682         1.58826 
        1.22108          2.4351         1.56961 
         1.2272         2.41741          1.5513 
        1.23334         2.38664         1.53325 
        1.23949         2.35801         1.51544 
        1.24562         2.34616         1.49796 
        1.25174         2.31824         1.48079 
        1.25789         2.29885         1.46384 
        1.26402         2.27203         1.44718 
        1.27014         2.25172         1.43083 
        1.27628         2.24214         1.41468 
        1.28244         2.21082         1.39875 
        1.28858          2.1941         1.38309 
        1.29471         2.17522          1.3677 
        1.30084         2.15394         1.35257 
        1.30697          2.1422         1.33764 
        1.31312         2.10527         1.32291 
        1.31925         2.09697         1.30846 
        1.32537         2.07968         1.29423 
        1.33151          2.0645         1.28017 
        1.33765         2.04115         1.26633 
        1.34378         2.02278         1.25271 
        1.34992         2.01357         1.23929 
        1.35606         1.98683         1.22604 
         1.3622          1.9765         1.21301 
        1.36833         1.95873         1.20019 
        1.37445         1.93958         1.18757 
        1.38059         1.92808          1.1751 
        1.38675          1.9193         1.16277 
        1.39288         1.89567         1.15067 
        1.39901         1.88116         1.13874 
        1.40515         1.86585         1.12696 
         1.4113         1.85341         1.11536 
        1.41742         1.83726         1.10396 
        1.42355         1.82942          1.0927 
         1.4297         1.80788         1.08156 
        1.43585          1.7985         1.07058 
        1.44198         1.78991          1.0598 
        1.44809         1.76752         1.04919 
        1.45423         1.75348         1.03868 
        1.46036         1.74223         1.02834 
        1.46649         1.72811         1.01813 
        1.47263         1.71618         1.00806 
        1.47877         1.70268        0.998127 
        1.48491         1.69032        0.988313 
        1.49104         1.68145        0.978652 
        1.49718         1.67181        0.969113 
        1.50333         1.66082        0.959686 
        1.50947         1.64912        0.950405 
         1.5156         1.63754         0.94126 
        1.52172         1.62706        0.932235 
        1.52787         1.61271        0.923311 
          1.534          1.6047        0.914515 
        1.54013         1.59374        0.905843 
        1.54627         1.57838        0.897268 
        1.55241         1.57027        0.888803 
        1.55855         1.56306         0.88046 
        1.56467         1.55181        0.872246 
         1.5708         1.53863        0.864115 
        1.57695         1.53031        0.856076 
        1.58308         1.52637        0.848158 
        1.58922         1.51382        0.840334 
        1.59535         1.50756        0.832613 
         1.6015         1.50051        0.824978 
        1.60764         1.48997        0.817443 
        1.61376         1.48054        0.810024 
        1.61989         1.47131        0.802691 
        1.62604         1.46603        0.795432 
        1.63218         1.46223        0.788268 
        1.63831         1.44815        0.781209 
        1.64444         1.44183        0.774234 
        1.65059         1.43998        0.767328 
        1.65673         1.43083        0.760514 
        1.66285         1.42502        0.753802 
        1.66898         1.42303        0.747169 
        1.67512         1.41422        0.740603 
        1.68127         1.40714         0.73411 
         1.6874         1.40565         0.72771 
        1.69353         1.39964         0.72139 
        1.69967         1.39475         0.71513 
        1.70581         1.39285        0.708947 
        1.71193         1.38793         0.70286 
        1.71806         1.38388        0.696833 
        1.72421         1.38096        0.690864 
        1.73035         1.38045        0.684972 
        1.73649         1.37668         0.67915 
        1.74262         1.37531          0.6734 
        1.74876          1.3719        0.667714 
        1.75489          1.3683        0.662105 
        1.76101         1.36603        0.656562 
        1.76715         1.36657        0.651075 
        1.77329         1.36355        0.645645 
        1.77943         1.36161        0.640274 
        1.78557          1.3621        0.634972 
        1.79171         1.36381         0.62973 
        1.79785         1.36334        0.624546 
        1.80399         1.36477        0.619422 
        1.81012         1.36935        0.614362 
        1.81625         1.36903        0.609361 
        1.82239         1.37528        0.604409 
        1.82853         1.37019        0.599514 
        1.83466         1.36978        0.594678 
        1.84078         1.37325        0.589901 
        1.84692         1.37656        0.585168 
        1.85306         1.38083        0.580482 
         1.8592         1.38162        0.575855 
        1.86533         1.38988        0.571281 
        1.87147          1.3977        0.566751 
        1.87761         1.40085        0.562269 
        1.88375         1.39678         0.55784 
        1.88988         1.40334        0.553464 
        1.89601         1.41174        0.549133 
        1.90215         1.41476        0.544844 
        1.90829         1.42187        0.540603 
        1.91442         1.42846        0.536408 
        1.92056         1.43477         0.53226 
         1.9267         1.44261        0.528152 
        1.93284         1.44838        0.524085 
        1.93897         1.45485        0.520069 
        1.94509         1.46904        0.516103 
        1.95123         1.47375        0.512169 
        1.95737         1.48445        0.508273 
        1.96349         1.49784        0.504428 
        1.96964         1.50032        0.500611 
        1.97578          1.5133        0.496832 
        1.98192         1.52356          0.4931 
        1.98805         1.53405        0.489406 
        1.99419         1.54135         0.48575 
        2.00033         1.55697        0.482129 
        2.00647         1.57608        0.478547 
         2.0126         1.57719        0.475007 
        2.01874         1.59531        0.471497 
        2.02488         1.60852         0.46802 
        2.03101         1.62279        0.464585 
        2.03714         1.63727        0.461187 
        2.04328          1.6485         0.45782 
        2.04941         1.66471        0.454489 
        2.05554         1.68584        0.451193 
        2.06167         1.69718        0.447926 
        2.06781         1.71148        0.444691 
        2.07396         1.73322        0.441483 
        2.08009         1.75042        0.438313 
        2.08622         1.76713        0.435177 
        2.09237         1.78581        0.432066 
        2.09851         1.80518        0.428985 
        2.10464         1.82693        0.425939 
        2.11077         1.84818        0.422926 
        2.11691          1.8683        0.419936 
        2.12305         1.88644        0.416974 
        2.12918         1.90869        0.414048 
        2.13531         1.93628         0.41115 
        2.14145         1.95277        0.408273 
         2.1476          1.9806        0.405421 
        2.15372         2.01356         0.40261 
        2.15985         2.02316        0.399822 
        2.16599         2.06002        0.397053 
        2.17213         2.08337        0.394314 
        2.17827         2.11431        0.391601 
         2.1844         2.14879        0.388915 
        2.19054         2.16998        0.386255 
        2.19666         2.19582        0.383622 
         2.2028         2.20897        0.381012 
        2.20893         2.25209        0.378426 
        2.21508         2.27504         0.37586 
        2.22122          2.3283        0.373317 
        2.22736         2.36586        0.370803 
        2.23349           2.382        0.368313 
        2.23962         2.41964        0.365844 
        2.24577         2.45262        0.363396 
         2.2519         2.49596        0.360974 
        2.25802         2.52368        0.358578 
        2.26417         2.56815        0.356197 
        2.27031         2.61521        0.353835 
        2.27644         2.64828        0.351502 
        2.28257         2.68905         0.34919 
        2.28872         2.72374        0.346895 
        2.29486         2.77048         0.34462 
        2.30099         2.81391        0.342371 
        2.30712          2.8644        0.340141 
        2.31326         2.91042        0.337926 
         2.3194         2.94824        0.335733 
        2.32553         2.99798        0.333564 
        2.33166         3.04546        0.331414 
         2.3378         3.08031         0.32928 
        2.34394          3.1631        0.327165 
        2.35007         3.18563        0.325071 
        2.35619          3.2449        0.322997 
        2.36233         3.31867        0.320938 
        2.36848         3.35489        0.318891 
        2.37462         3.43228        0.316867 
        2.38075         3.48624        0.314863 
        2.38689         3.55187        0.312874 
        2.39303         3.58871        0.310903 
        2.39916         3.66164         0.30895 
        2.40529          3.7124        0.307015 
        2.41143         3.76994        0.305095 
        2.41757         3.86556         0.30319 
         2.4237         3.92131        0.301305 
        2.42983         3.97835        0.299437 
        2.43598         4.02486        0.297579 
        2.44211         4.12384         0.29574 
        2.44823         4.20172        0.293921 
        2.45437         4.26075        0.292112 
        2.46052         4.33872        0.290316 
        2.46665         4.43426        0.288539 
        2.47279         4.48807        0.286778 
        2.47892         4.57018         0.28503 
        2.48507         4.66791        0.283295 
         2.4912          4.7555        0.281578 
