# k  (h/Mpc)    Pcb(k)  (Mpc/h)^3    Pcb_linear(k)  (Mpc/h)^3
     0.00783031         558.659         560.911 
       0.013688         686.506          690.43 
       0.019231         694.065         695.872 
      0.0249154         638.491         639.869 
      0.0312784         551.394         550.781 
      0.0375637         468.161         467.047 
      0.0433917         406.308         406.045 
      0.0492413         364.287         362.514 
      0.0555754         330.029         330.702 
      0.0619321         309.412         307.305 
       0.067871         286.723         286.933 
      0.0738098         264.501          264.43 
      0.0800417          238.03         237.906 
      0.0862327         211.536         210.555 
      0.0921407          187.34         186.271 
      0.0982031         166.171         165.449 
       0.104506         151.016         149.223 
       0.110769         139.992         138.139 
       0.116806         131.888         130.816 
       0.122832         126.533         125.058 
       0.129052         119.938         119.098 
       0.135211         113.129         112.165 
       0.141259          105.56         104.208 
       0.147318         97.4123         95.6347 
       0.153489         88.6911         87.1646 
       0.159709         81.2495         79.7162 
       0.165845         76.0863          73.882 
       0.171974         71.0272         69.5649 
       0.178125         68.0897         66.4096 
       0.184229         65.7448         63.9248 
        0.19034         62.8562         61.5581 
       0.196428          60.657         58.9473 
       0.202534         57.9263         55.9369 
       0.208729         54.3324         52.5787 
       0.214876         50.7946         49.1931 
       0.220989         47.9243         46.0492 
       0.227147         44.8876          43.312 
        0.23329         42.6637         41.0886 
       0.239377         41.0202         39.3368 
       0.245482         39.2793         37.8964 
       0.251667         38.3143         36.5897 
       0.257832         36.9721         35.2869 
       0.263955         35.5594         33.9046 
       0.270079         34.1205         32.4214 
        0.27624         32.7434         30.8765 
       0.282372         31.1939         29.3701 
        0.28843         29.7351         27.9886 
       0.294538         28.5243         26.7545 
       0.300721         27.5502         25.6789 
        0.30691         26.3685         24.7517 
       0.313033         25.5982         23.9346 
       0.319153         24.6017         23.1645 
       0.325316         24.0843         22.3943 
        0.33145          23.279         21.6116 
       0.337538         22.4504         20.8195 
       0.343633         21.5843         20.0289 
       0.349808         20.8975         19.2547 
       0.355968          20.145         18.5324 
       0.362074           19.48         17.8769 
       0.368217         18.8742         17.2808 
       0.374374         18.2687          16.736 
       0.380519         17.7892         16.2297 
       0.386598           17.34         15.7507 
       0.392688         16.8754         15.2794 
        0.39888         16.3917         14.8044 
       0.405048         15.9104         14.3361 
       0.411186         15.4726         13.8793 
       0.417313         14.9563         13.4405 
       0.423458         14.5406         13.0233 
       0.429607         14.1091         12.6311 
       0.435692         13.7226         12.2684 
       0.441815         13.3881         11.9254 
       0.447964         13.1242         11.5975 
       0.454126         12.6919         11.2812 
       0.460267         12.4069         10.9751 
       0.466387         12.0409         10.6765 
        0.47254         11.7958         10.3828 
       0.478662         11.5303         10.0991 
       0.484765         11.1871         9.82644 
       0.490885         10.9187          9.5642 
       0.497035         10.7365         9.31239 
       0.503198         10.4572         9.07209 
       0.509342         10.1945         8.84342 
       0.515458          9.9699         8.62468 
       0.521598         9.75167         8.41222 
       0.527764         9.50354          8.2051 
       0.533884         9.33361         8.00544 
           0.54         9.11144         7.81164 
       0.546137         8.93175          7.6228 
       0.552299         8.75124         7.43911 
       0.558452         8.49963         7.26201 
       0.564573         8.35661         7.09235 
       0.570708         8.19195          6.9287 
       0.576825         7.97799         6.77138 
       0.582926         7.84855         6.61963 
       0.589034         7.63336         6.47225 
       0.595184           7.506          6.3281 
       0.601379          7.3418         6.18711 
       0.607522         7.22337         6.05138 
       0.613639         7.11712         5.92024 
       0.619772         6.92335         5.79269 
       0.625918         6.84237         5.66873 
       0.632068         6.72209          5.5484 
       0.638161         6.56948         5.43273 
         0.6443         6.43412         5.31964 
       0.650464         6.29762         5.20946 
       0.656582          6.2155         5.10329 
       0.662703         6.10385         5.00012 
       0.668861         6.00516         4.89926 
       0.675024          5.8755         4.80111 
       0.681124         5.76871         4.70663 
       0.687237         5.68328         4.61449 
       0.693381         5.58819         4.52437 
       0.699536         5.44046         4.43649 
       0.705665         5.36679         4.35134 
       0.711789         5.28224         4.26851 
       0.717957         5.18785         4.18731 
        0.72409         5.09398          4.1087 
       0.730186         5.01415         4.03262 
       0.736317         4.95885         3.95809 
       0.742472          4.8771          3.8852 
       0.748622         4.78364         3.81423 
        0.75476         4.68755         3.74521 
       0.760888         4.62623         3.67802 
       0.767043         4.57015         3.61222 
       0.773185         4.47534         3.54818 
       0.779291         4.42013         3.48607 
       0.785407         4.34627         3.42537 
       0.791564         4.28311         3.36574 
       0.797719         4.21602         3.30757 
       0.803834         4.16583         3.25116 
       0.809972         4.10555         3.19587 
       0.816124         4.02815         3.14176 
       0.822261         3.95812         3.08905 
       0.828378         3.90902         3.03773 
       0.834502         3.87229         2.98753 
       0.840667         3.78835         2.93816 
       0.846816         3.73112         2.89005 
       0.852925         3.69679         2.84332 
       0.859047         3.64723         2.79755 
       0.865192         3.59893         2.75263 
       0.871341         3.55046         2.70869 
       0.877463         3.50274          2.6659 
       0.883569         3.43594         2.62416 
       0.889708         3.38963         2.58311 
       0.895864         3.35044         2.54283 
       0.902008         3.29603          2.5035 
       0.908149         3.26037         2.46504 
       0.914301         3.19693         2.42733 
       0.920448          3.1612         2.39044 
       0.926574         3.11312         2.35446 
       0.932687         3.07632          2.3193 
       0.938823         3.04695         2.28474 
       0.944975         3.00613         2.25081 
       0.951105         2.96738         2.21769 
       0.957225         2.94717         2.18531 
       0.963368         2.89966         2.15346 
       0.969511         2.85622         2.12225 
       0.975621         2.81537         2.09183 
       0.981748         2.79169         2.06194 
       0.987916         2.75347         2.03244 
        0.99406         2.70656         2.00363 
        1.00019         2.68666         1.97545 
        1.00632         2.64936         1.94783 
        1.01246         2.61629         1.92071 
        1.01859         2.58937         1.89415 
        1.02471         2.55416         1.86812 
        1.03085         2.52854          1.8425 
        1.03698         2.49165         1.81742 
        1.04314          2.4699         1.79271 
        1.04929         2.43598         1.76851 
        1.05541         2.40855         1.74486 
        1.06154         2.38295         1.72159 
        1.06769         2.35811          1.6987 
        1.07382         2.32802         1.67632 
        1.07993         2.29267         1.65438 
        1.08607         2.28006         1.63275 
        1.09222         2.24816         1.61149 
        1.09836         2.23144         1.59064 
        1.10449         2.20592         1.57017 
        1.11063         2.17565         1.55005 
        1.11677         2.15017         1.53029 
         1.1229         2.12406         1.51091 
        1.12903         2.10249         1.49185 
        1.13518         2.08626         1.47311 
        1.14131         2.05546          1.4547 
        1.14745         2.02367         1.43662 
        1.15359         2.01582         1.41884 
        1.15973          1.9841         1.40136 
        1.16584         1.97546         1.38425 
        1.17197         1.95217         1.36741 
        1.17811         1.93137         1.35079 
        1.18424         1.91718          1.3345 
        1.19038         1.89227         1.31844 
        1.19652         1.87267         1.30264 
        1.20267         1.85731         1.28711 
        1.20881         1.83419         1.27183 
        1.21495         1.82002         1.25683 
        1.22108         1.80276         1.24207 
         1.2272         1.78915         1.22758 
        1.23334         1.76595          1.2133 
        1.23949          1.7446          1.1992 
        1.24562         1.73456         1.18537 
        1.25174         1.71418         1.17179 
        1.25789         1.69954         1.15837 
        1.26402         1.67866         1.14519 
        1.27014         1.66427         1.13225 
        1.27628         1.65681         1.11947 
        1.28244         1.63171         1.10686 
        1.28858         1.61875         1.09447 
        1.29471         1.60664          1.0823 
        1.30084         1.59036         1.07032 
        1.30697         1.57908          1.0585 
        1.31312         1.55233         1.04685 
        1.31925          1.5462         1.03541 
        1.32537         1.53229         1.02416 
        1.33151         1.52123         1.01303 
        1.33765          1.5053         1.00207 
        1.34378         1.48966        0.991303 
        1.34992         1.48257        0.980683 
        1.35606         1.46405        0.970196 
         1.3622         1.45467        0.959882 
        1.36833         1.44122        0.949742 
        1.37445         1.42633        0.939755 
        1.38059         1.41685        0.929881 
        1.38675          1.4116        0.920126 
        1.39288         1.39445         0.91055 
        1.39901         1.38247        0.901115 
        1.40515          1.3718        0.891793 
         1.4113         1.36175        0.882608 
        1.41742         1.34918        0.873587 
        1.42355         1.34389        0.864676 
         1.4297         1.32702        0.855863 
        1.43585         1.32014        0.847176 
        1.44198         1.31429        0.838644 
        1.44809         1.29684        0.830246 
        1.45423         1.28689        0.821933 
        1.46036         1.27799        0.813749 
        1.46649         1.26836        0.805673 
        1.47263          1.2585        0.797702 
        1.47877         1.24964        0.789842 
        1.48491         1.23992        0.782075 
        1.49104         1.23192         0.77443 
        1.49718         1.22602        0.766882 
        1.50333         1.21674        0.759423 
        1.50947         1.20827        0.752078 
         1.5156         1.19932        0.744841 
        1.52172         1.19146          0.7377 
        1.52787         1.18135        0.730639 
          1.534         1.17484        0.723678 
        1.54013         1.16618        0.716815 
        1.54627         1.15558         0.71003 
        1.55241         1.14956        0.703331 
        1.55855         1.14245        0.696729 
        1.56467         1.13498         0.69023 
         1.5708          1.1249        0.683795 
        1.57695         1.11971        0.677433 
        1.58308         1.11583        0.671167 
        1.58922         1.10687        0.664977 
        1.59535          1.1013        0.658867 
         1.6015         1.09554        0.652825 
        1.60764          1.0878        0.646863 
        1.61376         1.07956        0.640991 
        1.61989         1.07461        0.635188 
        1.62604         1.07153        0.629444 
        1.63218         1.06621        0.623775 
        1.63831         1.05745        0.618189 
        1.64444         1.05319         0.61267 
        1.65059            1.05        0.607205 
        1.65673         1.04273        0.601813 
        1.66285         1.04037        0.596502 
        1.66898         1.03813        0.591253 
        1.67512         1.03172        0.586057 
        1.68127          1.0274        0.580919 
         1.6874         1.02632        0.575854 
        1.69353          1.0219        0.570853 
        1.69967         1.01792        0.565899 
        1.70581         1.01579        0.561007 
        1.71193         1.01241         0.55619 
        1.71806         1.01009         0.55142 
        1.72421         1.00769        0.546697 
        1.73035         1.00728        0.542035 
        1.73649         1.00658        0.537427 
        1.74262          1.0053        0.532878 
        1.74876         1.00282        0.528378 
        1.75489          1.0012        0.523939 
        1.76101        0.998293        0.519553 
        1.76715        0.998926        0.515211 
        1.77329        0.998806        0.510914 
        1.77943        0.995795        0.506664 
        1.78557        0.997798        0.502469 
        1.79171         0.99993         0.49832 
        1.79785         1.00022        0.494218 
        1.80399         1.00102        0.490163 
        1.81012         1.00469        0.486159 
        1.81625         1.00569        0.482202 
        1.82239         1.01088        0.478283 
        1.82853         1.00814         0.47441 
        1.83466         1.00975        0.470583 
        1.84078         1.01143        0.466803 
        1.84692         1.01459        0.463058 
        1.85306          1.0196         0.45935 
         1.8592         1.02014        0.455688 
        1.86533         1.02697        0.452068 
        1.87147         1.03369        0.448484 
        1.87761         1.03738        0.444937 
        1.88375         1.03485        0.441432 
        1.88988         1.04006         0.43797 
        1.89601         1.04712        0.434542 
        1.90215         1.05024        0.431148 
        1.90829         1.05651        0.427793 
        1.91442          1.0625        0.424472 
        1.92056         1.06829         0.42119 
         1.9267         1.07479        0.417939 
        1.93284         1.07918        0.414721 
        1.93897         1.08493        0.411543 
        1.94509         1.09847        0.408405 
        1.95123         1.10194        0.405292 
        1.95737          1.1112        0.402209 
        1.96349         1.12306        0.399166 
        1.96964         1.12742        0.396145 
        1.97578         1.13677        0.393155 
        1.98192         1.14754        0.390202 
        1.98805         1.15854        0.387279 
        1.99419         1.16083        0.384386 
        2.00033         1.17555        0.381521 
        2.00647         1.19025        0.378686 
         2.0126         1.19482        0.375884 
        2.01874         1.21028        0.373107 
        2.02488         1.21938        0.370356 
        2.03101         1.23179        0.367637 
        2.03714         1.24532        0.364948 
        2.04328         1.25744        0.362284 
        2.04941         1.26664        0.359648 
        2.05554         1.28518         0.35704 
        2.06167         1.29629        0.354455 
        2.06781         1.31164        0.351895 
        2.07396         1.32731        0.349356 
        2.08009         1.34038        0.346847 
        2.08622         1.35986        0.344366 
        2.09237           1.374        0.341904 
        2.09851         1.38952        0.339466 
        2.10464         1.40715        0.337055 
        2.11077         1.42456        0.334671 
        2.11691         1.44442        0.332305 
        2.12305         1.45994        0.329962 
        2.12918         1.47725        0.327646 
        2.13531         1.50596        0.325353 
        2.14145         1.51706        0.323077 
         2.1476         1.54029        0.320819 
        2.15372         1.56826        0.318595 
        2.15985         1.57526        0.316389 
        2.16599         1.60816        0.314198 
        2.17213         1.62878         0.31203 
        2.17827         1.65533        0.309883 
         2.1844          1.6872        0.307758 
        2.19054         1.70524        0.305653 
        2.19666         1.72759         0.30357 
         2.2028         1.74344        0.301504 
        2.20893         1.77334        0.299457 
        2.21508         1.79942        0.297427 
        2.22122         1.84148        0.295415 
        2.22736         1.87181        0.293425 
        2.23349         1.88586        0.291455 
        2.23962         1.91934        0.289501 
        2.24577         1.94866        0.287564 
         2.2519         1.98804        0.285648 
        2.25802         2.01085        0.283751 
        2.26417         2.05161        0.281867 
        2.27031         2.09042        0.279998 
        2.27644         2.11841        0.278152 
        2.28257         2.15703        0.276322 
        2.28872         2.19049        0.274506 
        2.29486         2.22789        0.272706 
        2.30099         2.26462        0.270926 
        2.30712         2.31021        0.269161 
        2.31326         2.35081        0.267409 
         2.3194         2.38542        0.265674 
        2.32553          2.4281        0.263957 
        2.33166         2.46928        0.262256 
         2.3378         2.50636        0.260567 
        2.34394         2.57192        0.258893 
        2.35007         2.59308        0.257236 
        2.35619         2.65305        0.255596 
        2.36233         2.70907        0.253966 
        2.36848         2.74938        0.252346 
        2.37462         2.80894        0.250745 
        2.38075         2.86385        0.249159 
        2.38689         2.91812        0.247585 
        2.39303         2.95532        0.246025 
        2.39916         3.01692         0.24448 
        2.40529          3.0758        0.242948 
        2.41143         3.11642        0.241429 
        2.41757         3.20037        0.239922 
         2.4237         3.26086         0.23843 
        2.42983         3.30918        0.236951 
        2.43598         3.35633        0.235481 
        2.44211         3.43471        0.234026 
        2.44823         3.50852        0.232586 
        2.45437         3.56526        0.231155 
        2.46052         3.63841        0.229734 
        2.46665         3.73418        0.228328 
        2.47279         3.78004        0.226934 
        2.47892         3.85252        0.225551 
        2.48507         3.94104        0.224178 
         2.4912         4.02004        0.222819 
