# k  (h/Mpc)    Pcb(k)  (Mpc/h)^3    Pcb_linear(k)  (Mpc/h)^3
     0.00783031          3803.1          3822.2 
       0.013688         4692.86         4700.18 
       0.019231          4726.7         4734.84 
      0.0249154         4319.96         4352.62 
      0.0312784         3738.67         3745.82 
      0.0375637         3181.02         3175.95 
      0.0433917          2745.4         2760.92 
      0.0492413         2469.84         2464.77 
      0.0555754         2220.79         2248.38 
      0.0619321         2104.68         2089.24 
       0.067871         1932.48         1950.69 
      0.0738098         1782.25         1797.67 
      0.0800417         1598.44         1617.32 
      0.0862327         1427.81         1431.37 
      0.0921407         1271.02         1266.27 
      0.0982031         1124.63         1124.71 
       0.104506         1033.97          1014.4 
       0.110769         958.629         939.046 
       0.116806         899.656         889.264 
       0.122832         864.143         850.114 
       0.129052         813.714         809.595 
       0.135211         769.264         762.468 
       0.141259         723.082         708.374 
       0.147318         670.868         650.094 
       0.153489         610.193         592.515 
       0.159709          564.06         541.883 
       0.165845         533.156         502.222 
       0.171974         497.329         472.876 
       0.178125         477.464         451.427 
       0.184229         461.601         434.535 
        0.19034         436.044         418.447 
       0.196428         425.612           400.7 
       0.202534         409.431         380.236 
       0.208729         385.225         357.407 
       0.214876         360.739         334.393 
       0.220989         344.644         313.022 
       0.227147         323.362         294.415 
        0.23329         308.762         279.302 
       0.239377         299.884         267.394 
       0.245482         282.604         257.602 
       0.251667          278.99          248.72 
       0.257832         270.745         239.864 
       0.263955         260.164         230.468 
       0.270079         250.339         220.385 
        0.27624         244.121         209.884 
       0.282372         233.549         199.644 
        0.28843         224.122         190.253 
       0.294538         214.937         181.864 
       0.300721         210.523         174.553 
        0.30691          200.82          168.25 
       0.313033          196.19         162.695 
       0.319153         187.863         157.461 
       0.325316         184.343         152.225 
        0.33145          177.88         146.905 
       0.337538         174.591         141.521 
       0.343633         168.462         136.147 
       0.349808         163.324         130.884 
       0.355968         159.524         125.974 
       0.362074         154.476         121.518 
       0.368217         150.563         117.466 
       0.374374         146.255         113.763 
       0.380519         143.031         110.321 
       0.386598          139.46         107.065 
       0.392688          136.91         103.862 
        0.39888         133.518         100.633 
       0.405048         130.356         97.4496 
       0.411186         127.477         94.3443 
       0.417313          123.97         91.3614 
       0.423458         121.361         88.5258 
       0.429607         118.345         85.8597 
       0.435692         114.371         83.3943 
       0.441815         113.458         81.0627 
       0.447964          111.63         78.8341 
       0.454126         106.829         76.6841 
       0.460267         105.631         74.6031 
       0.466387         103.547         72.5736 
        0.47254         101.818         70.5773 
       0.478662         100.467         68.6486 
       0.484765         97.4919         66.7951 
       0.490885         95.7475         65.0125 
       0.497035         94.6652         63.3008 
       0.503198         92.0408         61.6673 
       0.509342          89.978          60.113 
       0.515458         88.6842         58.6261 
       0.521598         87.5044         57.1819 
       0.527764         86.0113          55.774 
       0.533884         84.6624         54.4168 
           0.54         83.0102         53.0995 
       0.546137         82.1324         51.8158 
       0.552299         80.9661         50.5672 
       0.558452         78.7522         49.3634 
       0.564573         77.3995         48.2101 
       0.570708         76.5892         47.0977 
       0.576825         75.1292         46.0283 
       0.582926         73.7431         44.9968 
       0.589034         72.2474          43.995 
       0.595184         71.3834         43.0151 
       0.601379         70.4542         42.0567 
       0.607522         68.8294         41.1341 
       0.613639         68.5753         40.2427 
       0.619772         66.9046         39.3757 
       0.625918           66.52          38.533 
       0.632068         65.5561         37.7151 
       0.638161         64.5866         36.9289 
         0.6443         63.6046         36.1601 
       0.650464          62.757         35.4112 
       0.656582         62.0177         34.6895 
       0.662703          60.872         33.9882 
       0.668861          60.103         33.3026 
       0.675024         59.3179         32.6354 
       0.681124         58.3389         31.9932 
       0.687237         57.4497         31.3669 
       0.693381         56.9871         30.7543 
       0.699536          55.907         30.1569 
       0.705665         56.0923         29.5781 
       0.711789         54.6563         29.0151 
       0.717957          54.146         28.4631 
        0.72409         53.3974         27.9288 
       0.730186         52.6049         27.4117 
       0.736317           52.38          26.905 
       0.742472          51.489         26.4095 
       0.748622         51.0657         25.9271 
        0.75476         50.4563          25.458 
       0.760888         49.6756         25.0012 
       0.767043         49.1939          24.554 
       0.773185         48.5013         24.1187 
       0.779291         48.3452         23.6965 
       0.785407         47.7413         23.2838 
       0.791564         46.9914         22.8785 
       0.797719         46.2101         22.4831 
       0.803834         46.1071         22.0997 
       0.809972         45.4395         21.7238 
       0.816124          44.732          21.356 
       0.822261         44.4532         20.9978 
       0.828378         44.0669         20.6489 
       0.834502         43.5995         20.3077 
       0.840667         43.1795          19.972 
       0.846816         42.5456          19.645 
       0.852925         42.1626         19.3274 
       0.859047          41.667         19.0162 
       0.865192         41.3726         18.7109 
       0.871341         41.1909         18.4122 
       0.877463         40.3037         18.1214 
       0.883569         40.0041         17.8377 
       0.889708         39.7132         17.5586 
       0.895864         39.3366         17.2848 
       0.902008         38.9929         17.0175 
       0.908149         38.6398          16.756 
       0.914301         38.5097         16.4997 
       0.920448         37.8513          16.249 
       0.926574          37.563         16.0044 
       0.932687         37.2244         15.7654 
       0.938823         36.7444         15.5305 
       0.944975         36.5522         15.2998 
       0.951105         36.1965         15.0747 
       0.957225         35.7876         14.8545 
       0.963368         35.6515         14.6381 
       0.969511         35.2866         14.4259 
       0.975621         35.0348         14.2192 
       0.981748         34.5683         14.0159 
       0.987916         34.4506         13.8154 
        0.99406         34.0514         13.6196 
        1.00019          33.668          13.428 
        1.00632         33.4914         13.2403 
        1.01246          33.265         13.0559 
        1.01859         32.8304         12.8754 
        1.02471         32.7932         12.6985 
        1.03085         32.4579         12.5244 
        1.03698         32.0193         12.3539 
        1.04314         31.7899         12.1859 
        1.04929         31.5405         12.0214 
        1.05541         31.2425         11.8606 
        1.06154         31.1183         11.7024 
        1.06769         30.8596         11.5469 
        1.07382         30.5718         11.3947 
        1.07993          30.459         11.2456 
        1.08607         30.0874         11.0986 
        1.09222         29.9502         10.9541 
        1.09836         29.6397         10.8123 
        1.10449         29.4417         10.6732 
        1.11063         29.1095         10.5364 
        1.11677          28.983         10.4021 
         1.1229         28.8755         10.2704 
        1.12903         28.4472         10.1408 
        1.13518         28.2534         10.0134 
        1.14131         28.2052         9.88828 
        1.14745           27.95         9.76536 
        1.15359         27.8516         9.64452 
        1.15973         27.4756         9.52569 
        1.16584         27.2128          9.4094 
        1.17197         27.2487          9.2949 
        1.17811         26.9116         9.18196 
        1.18424         26.6894         9.07124 
        1.19038         26.6155         8.96203 
        1.19652         26.4309         8.85467 
        1.20267         26.2332         8.74907 
        1.20881         26.1077         8.64523 
        1.21495         25.9048         8.54324 
        1.22108         25.7137         8.44291 
         1.2272         25.4515         8.34445 
        1.23334          25.351         8.24733 
        1.23949         25.1025         8.15154 
        1.24562         25.0212         8.05755 
        1.25174         24.8755         7.96518 
        1.25789         24.7083         7.87399 
        1.26402         24.5791          7.7844 
        1.27014         24.3665         7.69642 
        1.27628         24.1457         7.60956 
        1.28244         24.0941         7.52387 
        1.28858         23.9782         7.43962 
        1.29471         23.7463         7.35686 
        1.30084         23.6253         7.27545 
        1.30697         23.4815         7.19514 
        1.31312         23.2444         7.11594 
        1.31925         23.1456         7.03819 
        1.32537         23.1159         6.96168 
        1.33151         22.9047         6.88604 
        1.33765         22.8173         6.81157 
        1.34378           22.68         6.73835 
        1.34992         22.4128         6.66616 
        1.35606         22.3833         6.59488 
         1.3622         22.2465         6.52476 
        1.36833         22.0929         6.45584 
        1.37445         22.0454         6.38795 
        1.38059         21.9253         6.32083 
        1.38675          21.672         6.25452 
        1.39288         21.6541         6.18943 
        1.39901         21.4579          6.1253 
        1.40515         21.4191         6.06193 
         1.4113         21.2701          5.9995 
        1.41742         21.1021         5.93818 
        1.42355         21.0676          5.8776 
         1.4297         20.9618          5.8177 
        1.43585         20.8881         5.75865 
        1.44198         20.7089         5.70066 
        1.44809         20.6284         5.64357 
        1.45423         20.5596         5.58706 
        1.46036         20.4663         5.53143 
        1.46649         20.3549         5.47654 
        1.47263         20.2133         5.42235 
        1.47877         20.1248         5.36892 
        1.48491         20.0126         5.31613 
        1.49104         20.0045         5.26416 
        1.49718         19.8206         5.21285 
        1.50333         19.7849         5.16215 
        1.50947          19.692         5.11222 
         1.5156         19.5787         5.06303 
        1.52172         19.4721         5.01449 
        1.52787         19.4146         4.96649 
          1.534         19.3161         4.91918 
        1.54013         19.2214         4.87253 
        1.54627         19.1541          4.8264 
        1.55241         19.0745         4.78087 
        1.55855         18.9493         4.73599 
        1.56467         18.9131         4.69181 
         1.5708         18.8504         4.64807 
        1.57695         18.7013         4.60483 
        1.58308         18.7211         4.56224 
        1.58922           18.61         4.52016 
        1.59535         18.5518         4.47862 
         1.6015         18.4374         4.43756 
        1.60764         18.3809         4.39703 
        1.61376         18.3245         4.35712 
        1.61989         18.2111         4.31767 
        1.62604         18.2493         4.27863 
        1.63218         18.1305         4.24009 
        1.63831         18.0865         4.20212 
        1.64444         17.9846          4.1646 
        1.65059         17.9451         4.12746 
        1.65673         17.8946          4.0908 
        1.66285         17.8224          4.0547 
        1.66898         17.7645         4.01902 
        1.67512         17.7435          3.9837 
        1.68127         17.6707         3.94878 
         1.6874         17.6144         3.91435 
        1.69353         17.5837         3.88035 
        1.69967         17.4849         3.84668 
        1.70581           17.48         3.81342 
        1.71193         17.3823         3.78068 
        1.71806         17.3632         3.74826 
        1.72421          17.281         3.71615 
        1.73035         17.2801         3.68446 
        1.73649         17.2269         3.65314 
        1.74262         17.2292         3.62222 
        1.74876          17.138         3.59163 
        1.75489          17.118         3.56146 
        1.76101         17.0792         3.53164 
        1.76715         17.0783         3.50213 
        1.77329         17.0213         3.47292 
        1.77943         16.9252         3.44403 
        1.78557         16.9462         3.41551 
        1.79171         16.9208         3.38732 
        1.79785         16.8433         3.35943 
        1.80399         16.8345         3.33187 
        1.81012         16.8106         3.30465 
        1.81625         16.7619         3.27775 
        1.82239         16.7518         3.25111 
        1.82853         16.6839         3.22478 
        1.83466         16.6949         3.19877 
        1.84078         16.6165         3.17307 
        1.84692         16.6346         3.14762 
        1.85306         16.5942         3.12241 
         1.8592         16.5933         3.09752 
        1.86533         16.5767         3.07292 
        1.87147         16.5411         3.04855 
        1.87761         16.5423         3.02444 
        1.88375         16.4942         3.00062 
        1.88988         16.4778         2.97708 
        1.89601         16.4794         2.95378 
        1.90215         16.4478         2.93071 
        1.90829         16.4345          2.9079 
        1.91442         16.4051         2.88533 
        1.92056         16.3896         2.86302 
         1.9267         16.4092         2.84093 
        1.93284         16.3763         2.81905 
        1.93897         16.3484         2.79745 
        1.94509         16.3469         2.77612 
        1.95123         16.3236         2.75495 
        1.95737         16.3398           2.734 
        1.96349         16.3141         2.71331 
        1.96964         16.3039         2.69278 
        1.97578         16.3134         2.67246 
        1.98192         16.2917         2.65238 
        1.98805         16.3111         2.63251 
        1.99419          16.261         2.61285 
        2.00033         16.2954         2.59337 
        2.00647         16.2888          2.5741 
         2.0126         16.2303         2.55506 
        2.01874         16.2671         2.53618 
        2.02488         16.2635         2.51748 
        2.03101         16.2842           2.499 
        2.03714         16.2754         2.48072 
        2.04328         16.2555         2.46261 
        2.04941         16.2448         2.44469 
        2.05554         16.2529         2.42697 
        2.06167         16.2388         2.40939 
        2.06781         16.2774         2.39199 
        2.07396         16.2631         2.37474 
        2.08009         16.2678         2.35768 
        2.08622         16.2518         2.34081 
        2.09237         16.2709         2.32408 
        2.09851         16.2847         2.30751 
        2.10464         16.2484         2.29112 
        2.11077         16.2573         2.27492 
        2.11691         16.2544         2.25883 
        2.12305         16.2731          2.2429 
        2.12918         16.2971         2.22716 
        2.13531          16.294         2.21158 
        2.14145         16.3065          2.1961 
         2.1476         16.3004         2.18076 
        2.15372         16.3325         2.16564 
        2.15985         16.2963         2.15064 
        2.16599         16.3075         2.13575 
        2.17213         16.3256         2.12101 
        2.17827         16.3638         2.10642 
         2.1844         16.3627         2.09197 
        2.19054         16.3097         2.07766 
        2.19666         16.3595          2.0635 
         2.2028         16.3782         2.04946 
        2.20893         16.3264         2.03555 
        2.21508         16.3878         2.02175 
        2.22122          16.372         2.00807 
        2.22736         16.3863         1.99455 
        2.23349         16.4303         1.98115 
        2.23962         16.3824         1.96788 
        2.24577         16.3979         1.95471 
         2.2519         16.4506         1.94168 
        2.25802         16.4399         1.92879 
        2.26417         16.4097         1.91598 
        2.27031         16.4199         1.90328 
        2.27644         16.4167         1.89073 
        2.28257         16.4716         1.87829 
        2.28872         16.4476         1.86594 
        2.29486         16.4602         1.85371 
        2.30099          16.485         1.84161 
        2.30712         16.5268         1.82961 
        2.31326         16.5015         1.81771 
         2.3194         16.4992         1.80591 
        2.32553          16.523         1.79424 
        2.33166         16.5253         1.78267 
         2.3378         16.5014          1.7712 
        2.34394         16.5336         1.75982 
        2.35007          16.522         1.74855 
        2.35619           16.51          1.7374 
        2.36233          16.544         1.72632 
        2.36848         16.5588         1.71532 
        2.37462         16.5513         1.70443 
        2.38075         16.5332         1.69365 
        2.38689         16.6058         1.68295 
        2.39303         16.5853         1.67234 
        2.39916         16.5919         1.66184 
        2.40529         16.5966         1.65143 
        2.41143          16.586          1.6411 
        2.41757         16.5752         1.63086 
         2.4237         16.6118         1.62072 
        2.42983         16.5779         1.61067 
        2.43598         16.6019         1.60067 
        2.44211         16.6147         1.59078 
        2.44823         16.5649           1.581 
        2.45437         16.5998         1.57127 
        2.46052         16.6085         1.56161 
        2.46665         16.6212         1.55205 
        2.47279          16.581         1.54258 
        2.47892         16.6386         1.53318 
        2.48507         16.6044         1.52384 
         2.4912         16.6234         1.51461 
