# k  (h/Mpc)    P(k)  (Mpc/h)^3    P_linear(k)  (Mpc/h)^3
     0.00783031         12944.4         12964.5 
       0.013688         16081.8         15926.3 
       0.019231         16097.3         16040.3 
      0.0249154         14553.4         14743.1 
      0.0312784         12620.6         12686.4 
      0.0375637         10775.4         10755.6 
      0.0433917         9219.36         9349.65 
      0.0492413         8327.88         8346.48 
      0.0555754         7403.13         7613.49 
      0.0619321         7104.39         7074.41 
       0.067871         6440.25         6605.14 
      0.0738098         5940.02         6086.91 
      0.0800417          5299.6         5476.19 
      0.0862327          4767.9          4846.5 
      0.0921407         4293.26         4287.46 
      0.0982031         3799.49         3808.13 
       0.104506         3546.32         3434.61 
       0.110769          3287.4         3179.44 
       0.116806         3091.81         3010.87 
       0.122832         2953.44         2878.31 
       0.129052          2756.2          2741.1 
       0.135211         2614.63         2581.54 
       0.141259          2484.7         2398.38 
       0.147318          2324.8         2201.05 
       0.153489         2117.62          2006.1 
       0.159709         1985.84         1834.66 
       0.165845         1901.46         1700.38 
       0.171974         1791.45         1601.02 
       0.178125          1710.6          1528.4 
       0.184229         1648.03          1471.2 
        0.19034         1554.75         1416.73 
       0.196428         1525.18         1356.64 
       0.202534         1468.08         1287.35 
       0.208729         1396.36         1210.06 
       0.214876         1327.58         1132.14 
       0.220989         1280.64         1059.79 
       0.227147         1221.42         996.791 
        0.23329         1170.44         945.623 
       0.239377         1149.33         905.305 
       0.245482         1075.88         872.152 
       0.251667         1071.68         842.082 
       0.257832         1034.27         812.097 
       0.263955         999.011         780.282 
       0.270079         963.325         746.148 
        0.27624         952.471         710.592 
       0.282372         911.915         675.923 
        0.28843         899.572         644.128 
       0.294538         854.222         615.727 
       0.300721         849.077         590.974 
        0.30691         813.959         569.632 
       0.313033         799.618         550.827 
       0.319153         779.005         533.105 
       0.325316         755.923          515.38 
        0.33145         736.761         497.365 
       0.337538         727.221         479.137 
       0.343633         706.648         460.942 
       0.349808         682.439         443.121 
       0.355968         677.881           426.5 
       0.362074         667.928         411.414 
       0.368217         649.223         397.697 
       0.374374         623.088         385.158 
       0.380519          621.64         373.506 
       0.386598         605.869         362.482 
       0.392688         603.551         351.636 
        0.39888         585.387         340.705 
       0.405048         576.209         329.926 
       0.411186         567.219         319.414 
       0.417313         554.971         309.314 
       0.423458         546.612         299.715 
       0.429607         537.021         290.687 
       0.435692         524.739         282.341 
       0.441815          521.14         274.447 
       0.447964         510.008         266.902 
       0.454126         500.273         259.623 
       0.460267         491.368         252.577 
       0.466387         485.577         245.706 
        0.47254         477.275         238.947 
       0.478662         475.329         232.417 
       0.484765         460.257         226.142 
       0.490885         456.633         220.107 
       0.497035         447.722         214.311 
       0.503198         442.539         208.782 
       0.509342         439.155         203.519 
       0.515458         434.417         198.485 
       0.521598         424.761         193.596 
       0.527764          417.08         188.829 
       0.533884         415.346         184.234 
           0.54         409.254         179.774 
       0.546137         407.744         175.428 
       0.552299         399.957         171.201 
       0.558452         397.544         167.125 
       0.564573         391.574          163.22 
       0.570708         385.421         159.454 
       0.576825         376.873         155.834 
       0.582926         375.567         152.341 
       0.589034         372.631          148.95 
       0.595184         369.226         145.632 
       0.601379          364.06         142.387 
       0.607522          358.38         139.264 
       0.613639         357.141         136.246 
       0.619772         348.409         133.311 
       0.625918         347.492         130.458 
       0.632068         342.207         127.688 
       0.638161         340.599         125.026 
         0.6443         334.758         122.424 
       0.650464         332.036         119.888 
       0.656582         330.063         117.445 
       0.662703         328.304          115.07 
       0.668861         322.224         112.749 
       0.675024           319.1         110.491 
       0.681124         317.061         108.316 
       0.687237         313.814         106.196 
       0.693381          309.37         104.122 
       0.699536         305.775         102.099 
       0.705665         303.815          100.14 
       0.711789         301.326         98.2335 
       0.717957         299.235         96.3647 
        0.72409         296.102         94.5557 
       0.730186         292.926         92.8049 
       0.736317         289.798         91.0896 
       0.742472         288.355         89.4121 
       0.748622         285.578         87.7789 
        0.75476         282.544         86.1905 
       0.760888         279.077         84.6441 
       0.767043         278.976         83.1299 
       0.773185         275.472         81.6561 
       0.779291         270.931         80.2267 
       0.785407         270.517         78.8297 
       0.791564         267.214         77.4575 
       0.797719         264.544         76.1188 
       0.803834         262.925         74.8206 
       0.809972         261.063         73.5482 
       0.816124          261.09         72.3029 
       0.822261         257.144           71.09 
       0.828378         255.176         69.9087 
       0.834502         253.595         68.7536 
       0.840667          250.18         67.6173 
       0.846816         248.514           66.51 
       0.852925         247.104         65.4348 
       0.859047         245.088         64.3813 
       0.865192         242.546         63.3477 
       0.871341         240.532         62.3363 
       0.877463         238.584         61.3517 
       0.883569         237.581         60.3911 
       0.889708         235.223         59.4463 
       0.895864         232.716         58.5194 
       0.902008         231.441         57.6143 
       0.908149         230.002         56.7291 
       0.914301         227.288         55.8612 
       0.920448         225.533         55.0124 
       0.926574         223.604         54.1844 
       0.932687         223.705         53.3752 
       0.938823         220.793         52.5798 
       0.944975         219.075          51.799 
       0.951105         217.693         51.0368 
       0.957225         216.237         50.2915 
       0.963368         213.592         49.5586 
       0.969511         212.773         48.8404 
       0.975621         210.269         48.1403 
       0.981748         210.517         47.4523 
       0.987916         208.289         46.7734 
        0.99406          205.72         46.1105 
        1.00019         205.618         45.4618 
        1.00632         203.652         44.8263 
        1.01246          202.13         44.2021 
        1.01859         201.829         43.5909 
        1.02471         199.107          42.992 
        1.03085          196.96         42.4024 
        1.03698         196.541         41.8252 
        1.04314         194.297         41.2564 
        1.04929         193.331         40.6995 
        1.05541         192.761         40.1552 
        1.06154          190.49         39.6196 
        1.06769         190.283         39.0931 
        1.07382         188.845         38.5778 
        1.07993         187.044         38.0731 
        1.08607          186.13         37.5753 
        1.09222         185.098          37.086 
        1.09836         183.414          36.606 
        1.10449         181.294         36.1351 
        1.11063         179.652         35.6721 
        1.11677         179.483         35.2173 
         1.1229         177.921         34.7713 
        1.12903         176.682         34.3327 
        1.13518         175.671         33.9013 
        1.14131          174.27         33.4777 
        1.14745         173.583         33.0615 
        1.15359         172.283         32.6524 
        1.15973           171.5         32.2501 
        1.16584         169.457         31.8564 
        1.17197         168.909         31.4687 
        1.17811         167.446         31.0864 
        1.18424         166.495         30.7115 
        1.19038         166.043         30.3418 
        1.19652         164.439         29.9783 
        1.20267         163.771         29.6208 
        1.20881         162.524         29.2692 
        1.21495         161.411         28.9239 
        1.22108         160.392         28.5842 
         1.2272          159.04         28.2509 
        1.23334         158.112         27.9221 
        1.23949          157.18         27.5978 
        1.24562         156.149         27.2795 
        1.25174         154.415         26.9668 
        1.25789         153.712         26.6581 
        1.26402         152.614         26.3548 
        1.27014         151.291         26.0569 
        1.27628         150.842         25.7628 
        1.28244         150.365         25.4727 
        1.28858         149.026         25.1875 
        1.29471         147.394         24.9073 
        1.30084         147.226         24.6317 
        1.30697         145.885         24.3598 
        1.31312         145.064         24.0917 
        1.31925         144.244         23.8284 
        1.32537         143.265         23.5694 
        1.33151         141.947         23.3133 
        1.33765         141.361         23.0612 
        1.34378         140.637         22.8133 
        1.34992         139.798         22.5689 
        1.35606         139.156         22.3275 
         1.3622         137.955         22.0902 
        1.36833         136.796         21.8568 
        1.37445         136.061          21.627 
        1.38059         135.079         21.3997 
        1.38675         134.553         21.1752 
        1.39288         133.717         20.9549 
        1.39901         133.284         20.7377 
        1.40515         132.143         20.5232 
         1.4113         130.949         20.3118 
        1.41742         130.162         20.1042 
        1.42355         129.361         19.8991 
         1.4297         128.664         19.6963 
        1.43585         127.834         19.4964 
        1.44198         127.043         19.3001 
        1.44809         126.372         19.1068 
        1.45423          125.55         18.9155 
        1.46036         124.923         18.7271 
        1.46649         123.912         18.5413 
        1.47263         123.364         18.3578 
        1.47877         122.608         18.1769 
        1.48491         121.492         17.9982 
        1.49104         121.034         17.8223 
        1.49718         119.865         17.6486 
        1.50333         119.381         17.4769 
        1.50947         118.942         17.3079 
         1.5156         118.036         17.1413 
        1.52172         117.143          16.977 
        1.52787         116.628         16.8145 
          1.534         115.944         16.6543 
        1.54013         114.972         16.4964 
        1.54627         114.524         16.3402 
        1.55241         113.616          16.186 
        1.55855         112.765         16.0341 
        1.56467         112.478         15.8845 
         1.5708         111.717         15.7364 
        1.57695         111.071           15.59 
        1.58308         110.441         15.4458 
        1.58922         110.002         15.3034 
        1.59535         109.099         15.1628 
         1.6015          108.59         15.0237 
        1.60764         107.821         14.8865 
        1.61376         107.402         14.7514 
        1.61989         106.433         14.6178 
        1.62604         106.036         14.4856 
        1.63218         105.517         14.3552 
        1.63831         104.679         14.2266 
        1.64444         104.162         14.0996 
        1.65059         103.553         13.9738 
        1.65673         102.722         13.8498 
        1.66285         102.343         13.7275 
        1.66898         101.791         13.6067 
        1.67512         101.272         13.4872 
        1.68127         100.515         13.3689 
         1.6874         99.6829         13.2524 
        1.69353         99.3544         13.1373 
        1.69967         98.6797         13.0233 
        1.70581         98.3779         12.9107 
        1.71193          97.806         12.7998 
        1.71806         96.9661           12.69 
        1.72421         96.4651         12.5813 
        1.73035         95.9201          12.474 
        1.73649         95.2646          12.368 
        1.74262         94.7394         12.2633 
        1.74876         94.3809         12.1598 
        1.75489         93.4144         12.0576 
        1.76101          93.003         11.9567 
        1.76715         92.5272         11.8567 
        1.77329         92.1845         11.7579 
        1.77943         91.2742           11.66 
        1.78557         90.9906         11.5635 
        1.79171         90.2633          11.468 
        1.79785         89.9462         11.3736 
        1.80399           89.29         11.2803 
        1.81012         88.7757         11.1882 
        1.81625         88.3238         11.0971 
        1.82239         87.9365         11.0069 
        1.82853         87.3729         10.9178 
        1.83466         86.8081         10.8297 
        1.84078         86.4947         10.7427 
        1.84692         85.7938         10.6565 
        1.85306         85.2592         10.5712 
         1.8592         84.9645         10.4869 
        1.86533         84.3618         10.4036 
        1.87147         83.8349         10.3211 
        1.87761         83.4252         10.2395 
        1.88375         82.8157         10.1588 
        1.88988         82.4445         10.0791 
        1.89601         81.8958         10.0003 
        1.90215         81.4338         9.92217 
        1.90829         80.9818         9.84494 
        1.91442         80.5728         9.76853 
        1.92056         79.9862           9.693 
         1.9267         79.7382         9.61819 
        1.93284         79.1675         9.54412 
        1.93897         78.6046         9.47098 
        1.94509         78.3589         9.39876 
        1.95123          77.833         9.32711 
        1.95737         77.4715         9.25616 
        1.96349          76.881         9.18614 
        1.96964           76.47         9.11663 
        1.97578         76.0091         9.04782 
        1.98192         75.8528         8.97985 
        1.98805          75.248         8.91258 
        1.99419         74.8579           8.846 
        2.00033         74.4214         8.78006 
        2.00647         74.0629         8.71482 
         2.0126         73.5046         8.65035 
        2.01874         72.9341         8.58644 
        2.02488         72.5818         8.52312 
        2.03101         72.2471         8.46056 
        2.03714         71.8558         8.39868 
        2.04328         71.3688         8.33735 
        2.04941         71.0366         8.27669 
        2.05554         70.6692         8.21668 
        2.06167         70.2397         8.15718 
        2.06781         69.7641         8.09827 
        2.07396         69.3872         8.03985 
        2.08009         69.1057         7.98211 
        2.08622         68.5667         7.92501 
        2.09237         68.1595         7.86835 
        2.09851         67.9624         7.81224 
        2.10464         67.4169         7.75677 
        2.11077         67.1126          7.7019 
        2.11691          66.871         7.64745 
        2.12305         66.3248         7.59351 
        2.12918         65.9689         7.54023 
        2.13531         65.6227         7.48746 
        2.14145         65.3363         7.43507 
         2.1476          64.887         7.38311 
        2.15372         64.5813         7.33192 
        2.15985         64.1498         7.28116 
        2.16599         63.8459         7.23073 
        2.17213         63.4446         7.18084 
        2.17827         62.9978         7.13143 
         2.1844         62.7136         7.08253 
        2.19054         62.5156         7.03408 
        2.19666         62.1275         6.98614 
         2.2028         61.9368         6.93861 
        2.20893          61.462          6.8915 
        2.21508         61.1263         6.84478 
        2.22122         60.7715         6.79847 
        2.22736         60.5286         6.75269 
        2.23349         60.0535         6.70734 
        2.23962         59.7933         6.66238 
        2.24577          59.491          6.6178 
         2.2519         59.2145         6.57369 
        2.25802          58.799         6.53006 
        2.26417          58.423          6.4867 
        2.27031         58.1672         6.44369 
        2.27644         57.9038          6.4012 
        2.28257         57.5821         6.35909 
        2.28872          57.256         6.31729 
        2.29486         56.8255         6.27587 
        2.30099         56.5884         6.23491 
        2.30712         56.3479         6.19429 
        2.31326         56.1247         6.15397 
         2.3194         55.7928         6.11403 
        2.32553         55.4077         6.07452 
        2.33166         55.1092         6.03537 
         2.3378         54.8218         5.99651 
        2.34394         54.5698         5.95798 
        2.35007         54.1909         5.91985 
        2.35619         53.9924          5.8821 
        2.36233         53.6983         5.84458 
        2.36848          53.385         5.80732 
        2.37462         53.0708         5.77046 
        2.38075         52.9697         5.73396 
        2.38689          52.585         5.69774 
        2.39303         52.3278         5.66184 
        2.39916         52.0413         5.62628 
        2.40529         51.8043         5.59104 
        2.41143         51.5164         5.55607 
        2.41757         51.2282         5.52138 
         2.4237         51.0599         5.48706 
        2.42983         50.7598         5.45303 
        2.43598         50.4452         5.41919 
        2.44211         50.2407         5.38571 
        2.44823         49.8462         5.35257 
        2.45437         49.6405         5.31963 
        2.46052         49.4237         5.28694 
        2.46665         49.2551         5.25458 
        2.47279         48.9051          5.2225 
        2.47892         48.7414         5.19067 
        2.48507         48.4206         5.15907 
         2.4912         48.2378          5.1278 
