# k  (h/Mpc)    P(k)  (Mpc/h)^3    P_linear(k)  (Mpc/h)^3
     0.00783031         3771.72         3776.34 
       0.013688         4653.29         4641.77 
       0.019231         4686.47         4676.43 
      0.0249154            4283         4299.07 
      0.0312784         3706.57         3699.87 
      0.0375637         3153.65         3137.06 
      0.0433917         2721.75         2727.15 
      0.0492413         2448.55         2434.65 
      0.0555754         2201.62         2220.92 
      0.0619321          2086.5         2063.73 
       0.067871         1915.79         1926.88 
      0.0738098         1766.85         1775.73 
      0.0800417         1584.62         1597.59 
      0.0862327         1415.47         1413.91 
      0.0921407         1260.02         1250.83 
      0.0982031         1114.91         1110.99 
       0.104506         1025.03         1002.03 
       0.110769         950.335         927.593 
       0.116806         891.871         878.419 
       0.122832         856.665         839.746 
       0.129052         806.672         799.721 
       0.135211         762.606          753.17 
       0.141259         716.823         699.735 
       0.147318         665.061         642.166 
       0.153489         604.911         585.289 
       0.159709         559.176         535.274 
       0.165845          528.54         496.098 
       0.171974         493.023         467.109 
       0.178125         473.329         445.921 
       0.184229         457.604         429.236 
        0.19034         432.268         413.344 
       0.196428         421.926         395.813 
       0.202534         405.885         375.598 
       0.208729         381.889         353.048 
       0.214876         357.615         330.315 
       0.220989         341.658         309.204 
       0.227147         320.561         290.825 
        0.23329         306.087         275.896 
       0.239377         297.286         264.133 
       0.245482         280.156         254.461 
       0.251667         276.573         245.687 
       0.257832         268.399         236.939 
       0.263955         257.909         227.657 
       0.270079          248.17         217.698 
        0.27624         242.006         207.324 
       0.282372         231.525         197.209 
        0.28843          222.18         187.933 
       0.294538         213.075         179.646 
       0.300721         208.699         172.424 
        0.30691         199.079         166.198 
       0.313033          194.49         160.711 
       0.319153         186.235          155.54 
       0.325316         182.745         150.369 
        0.33145         176.338         145.113 
       0.337538         173.078         139.795 
       0.343633         167.002         134.486 
       0.349808         161.908         129.287 
       0.355968         158.141         124.437 
       0.362074         153.137         120.036 
       0.368217         149.258         116.034 
       0.374374         144.987         112.375 
       0.380519         141.792         108.976 
       0.386598         138.251         105.759 
       0.392688         135.723         102.595 
        0.39888          132.36         99.4056 
       0.405048         129.226         96.2608 
       0.411186         126.372         93.1936 
       0.417313         122.895         90.2468 
       0.423458         120.308         87.4461 
       0.429607         117.319         84.8122 
       0.435692         113.379         82.3772 
       0.441815         112.475         80.0738 
       0.447964         110.662         77.8727 
       0.454126         105.903         75.7487 
       0.460267         104.715         73.6931 
       0.466387         102.649         71.6884 
        0.47254         100.935         69.7164 
       0.478662         99.5954         67.8112 
       0.484765         96.6464         65.9804 
       0.490885         94.9171         64.2195 
       0.497035         93.8441         62.5285 
       0.503198         91.2425         60.9152 
       0.509342         89.1976         59.3798 
       0.515458          87.915          57.911 
       0.521598         86.7455         56.4845 
       0.527764         85.2653         55.0937 
       0.533884         83.9281         53.7531 
           0.54         82.2901         52.4519 
       0.546137         81.4199         51.1838 
       0.552299         80.2638         49.9504 
       0.558452         78.0691         48.7613 
       0.564573         76.7281         47.6219 
       0.570708         75.9248         46.5232 
       0.576825         74.4775         45.4668 
       0.582926         73.1034         44.4479 
       0.589034         71.6207         43.4584 
       0.595184         70.7641         42.4904 
       0.601379          69.843         41.5437 
       0.607522         68.2322         40.6324 
       0.613639         67.9804         39.7518 
       0.619772         66.3242         38.8954 
       0.625918         65.9428          38.063 
       0.632068         64.9873         37.2551 
       0.638161         64.0263         36.4784 
         0.6443         63.0527          35.719 
       0.650464         62.2125         34.9792 
       0.656582         61.4796         34.2664 
       0.662703         60.3439         33.5736 
       0.668861         59.5815         32.8963 
       0.675024         58.8032         32.2373 
       0.681124         57.8327          31.603 
       0.687237         56.9512         30.9842 
       0.693381         56.4926         30.3791 
       0.699536         55.4219         29.7891 
       0.705665         55.6056         29.2173 
       0.711789          54.182         28.6612 
       0.717957         53.6762         28.1159 
        0.72409          52.934         27.5881 
       0.730186         52.1484         27.0773 
       0.736317         51.9254         26.5768 
       0.742472         51.0422         26.0874 
       0.748622         50.6225         25.6109 
        0.75476         50.0184         25.1474 
       0.760888         49.2445         24.6963 
       0.767043          48.767         24.2545 
       0.773185         48.0803         23.8245 
       0.779291         47.9256         23.4074 
       0.785407         47.3269         22.9998 
       0.791564         46.5836         22.5994 
       0.797719         45.8091         22.2089 
       0.803834          45.707         21.8301 
       0.809972         45.0452         21.4588 
       0.816124         44.3438         21.0955 
       0.822261         44.0674         20.7416 
       0.828378         43.6844          20.397 
       0.834502         43.2211         20.0599 
       0.840667         42.8047         19.7284 
       0.846816         42.1763         19.4054 
       0.852925         41.7967         19.0916 
       0.859047         41.3053         18.7843 
       0.865192         41.0135         18.4827 
       0.871341         40.8334         18.1876 
       0.877463         39.9539         17.9003 
       0.883569         39.6569         17.6201 
       0.889708         39.3685         17.3444 
       0.895864         38.9951          17.074 
       0.902008         38.6544         16.8099 
       0.908149         38.3044         16.5516 
       0.914301         38.1754         16.2984 
       0.920448         37.5228         16.0508 
       0.926574          37.237         15.8092 
       0.932687         36.9013         15.5731 
       0.938823         36.4255          15.341 
       0.944975          36.235         15.1132 
       0.951105         35.8823         14.8908 
       0.957225         35.4769         14.6733 
       0.963368         35.3421         14.4595 
       0.969511         34.9803           14.25 
       0.975621         34.7307         14.0457 
       0.981748         34.2682          13.845 
       0.987916         34.1515         13.6469 
        0.99406         33.7558         13.4535 
        1.00019         33.3758         13.2642 
        1.00632         33.2007         13.0788 
        1.01246         32.9763         12.8967 
        1.01859         32.5455         12.7183 
        1.02471         32.5085         12.5436 
        1.03085         32.1762         12.3716 
        1.03698         31.7413         12.2032 
        1.04314          31.514         12.0372 
        1.04929         31.2668         11.8747 
        1.05541         30.9713         11.7159 
        1.06154         30.8482         11.5597 
        1.06769         30.5917          11.406 
        1.07382         30.3064         11.2557 
        1.07993         30.1946         11.1084 
        1.08607         29.8262         10.9632 
        1.09222         29.6902         10.8204 
        1.09836         29.3824         10.6804 
        1.10449         29.1861          10.543 
        1.11063         28.8568         10.4079 
        1.11677         28.7314         10.2752 
         1.1229         28.6249         10.1451 
        1.12903         28.2003         10.0171 
        1.13518         28.0081         9.89127 
        1.14131         27.9603         9.76765 
        1.14745         27.7074         9.64623 
        1.15359         27.6098         9.52687 
        1.15973         27.2371         9.40948 
        1.16584         26.9766         9.29461 
        1.17197         27.0121         9.18151 
        1.17811          26.678         9.06995 
        1.18424         26.4577         8.96058 
        1.19038         26.3845          8.8527 
        1.19652         26.2014         8.74665 
        1.20267         26.0054         8.64234 
        1.20881         25.8811         8.53976 
        1.21495         25.6799         8.43902 
        1.22108         25.4905         8.33992 
         1.2272         25.2305         8.24265 
        1.23334         25.1309         8.14672 
        1.23949         24.8846          8.0521 
        1.24562         24.8039         7.95925 
        1.25174         24.6596         7.86801 
        1.25789         24.4938         7.77793 
        1.26402         24.3657         7.68943 
        1.27014          24.155         7.60253 
        1.27628          23.936         7.51673 
        1.28244         23.8849         7.43208 
        1.28858         23.7701         7.34887 
        1.29471         23.5401         7.26712 
        1.30084         23.4202         7.18669 
        1.30697         23.2777         7.10737 
        1.31312         23.0426         7.02913 
        1.31925         22.9447         6.95233 
        1.32537         22.9153         6.87675 
        1.33151         22.7058         6.80203 
        1.33765         22.6192         6.72847 
        1.34378         22.4831         6.65615 
        1.34992         22.2182         6.58484 
        1.35606          22.189         6.51442 
         1.3622         22.0534         6.44516 
        1.36833         21.9011         6.37708 
        1.37445         21.8541         6.31002 
        1.38059         21.7349         6.24372 
        1.38675         21.4839         6.17822 
        1.39288         21.4661         6.11392 
        1.39901         21.2716         6.05057 
        1.40515         21.2331         5.98798 
         1.4113         21.0854          5.9263 
        1.41742          20.919         5.86573 
        1.42355         20.8847          5.8059 
         1.4297         20.7798         5.74672 
        1.43585         20.7068          5.6884 
        1.44198         20.5291         5.63111 
        1.44809         20.4494         5.57472 
        1.45423         20.3811          5.5189 
        1.46036         20.2886         5.46395 
        1.46649         20.1782         5.40972 
        1.47263         20.0378          5.3562 
        1.47877         19.9501         5.30342 
        1.48491         19.8389         5.25127 
        1.49104         19.8308         5.19994 
        1.49718         19.6486         5.14926 
        1.50333         19.6131         5.09917 
        1.50947          19.521         5.04986 
         1.5156         19.4087         5.00126 
        1.52172         19.3031         4.95331 
        1.52787         19.2461          4.9059 
          1.534         19.1484         4.85916 
        1.54013         19.0546         4.81308 
        1.54627         18.9878         4.76752 
        1.55241         18.9089         4.72254 
        1.55855         18.7848         4.67821 
        1.56467         18.7489         4.63457 
         1.5708         18.6868         4.59137 
        1.57695         18.5389         4.54865 
        1.58308         18.5586         4.50658 
        1.58922         18.4485         4.46501 
        1.59535         18.3907         4.42398 
         1.6015         18.2774         4.38342 
        1.60764         18.2214         4.34338 
        1.61376         18.1655         4.30396 
        1.61989          18.053         4.26499 
        1.62604         18.0909         4.22643 
        1.63218         17.9731         4.18836 
        1.63831         17.9295         4.15085 
        1.64444         17.8285         4.11379 
        1.65059         17.7893          4.0771 
        1.65673         17.7393         4.04089 
        1.66285         17.6676         4.00523 
        1.66898         17.6103         3.96999 
        1.67512         17.5894          3.9351 
        1.68127         17.5173          3.9006 
         1.6874         17.4615         3.86659 
        1.69353         17.4311         3.83301 
        1.69967         17.3331         3.79975 
        1.70581         17.3283          3.7669 
        1.71193         17.2314         3.73456 
        1.71806         17.2124         3.70253 
        1.72421          17.131         3.67081 
        1.73035         17.1301         3.63951 
        1.73649         17.0774         3.60857 
        1.74262         17.0797         3.57802 
        1.74876         16.9892         3.54781 
        1.75489         16.9694         3.51801 
        1.76101         16.9309         3.48856 
        1.76715         16.9301          3.4594 
        1.77329         16.8736         3.43055 
        1.77943         16.7782         3.40201 
        1.78557         16.7991         3.37384 
        1.79171         16.7739         3.34599 
        1.79785         16.6971         3.31844 
        1.80399         16.6884         3.29122 
        1.81012         16.6647         3.26433 
        1.81625         16.6164         3.23776 
        1.82239         16.6063         3.21145 
        1.82853          16.539         3.18544 
        1.83466           16.55         3.15974 
        1.84078         16.4722         3.13436 
        1.84692         16.4902         3.10922 
        1.85306         16.4501         3.08432 
         1.8592         16.4493         3.05973 
        1.86533         16.4328         3.03543 
        1.87147         16.3975         3.01136 
        1.87761         16.3987         2.98754 
        1.88375          16.351         2.96401 
        1.88988         16.3347         2.94076 
        1.89601         16.3364         2.91774 
        1.90215          16.305         2.89496 
        1.90829         16.2919         2.87243 
        1.91442         16.2626         2.85013 
        1.92056         16.2473         2.82809 
         1.9267         16.2667         2.80627 
        1.93284         16.2341         2.78466 
        1.93897         16.2064         2.76332 
        1.94509          16.205         2.74225 
        1.95123         16.1819         2.72134 
        1.95737         16.1979         2.70064 
        1.96349         16.1724         2.68021 
        1.96964         16.1624         2.65993 
        1.97578         16.1718         2.63985 
        1.98192         16.1503         2.62002 
        1.98805         16.1695         2.60039 
        1.99419         16.1198         2.58097 
        2.00033         16.1539         2.56173 
        2.00647         16.1474         2.54269 
         2.0126         16.0894         2.52389 
        2.01874         16.1259         2.50524 
        2.02488         16.1223         2.48676 
        2.03101         16.1429         2.46851 
        2.03714         16.1341         2.45046 
        2.04328         16.1144         2.43256 
        2.04941         16.1038         2.41486 
        2.05554         16.1118         2.39735 
        2.06167         16.0978         2.37999 
        2.06781          16.136          2.3628 
        2.07396         16.1219         2.34576 
        2.08009         16.1265         2.32891 
        2.08622         16.1107         2.31225 
        2.09237         16.1297         2.29572 
        2.09851         16.1434         2.27935 
        2.10464         16.1074         2.26317 
        2.11077         16.1162         2.24716 
        2.11691         16.1133         2.23127 
        2.12305         16.1318         2.21554 
        2.12918         16.1556         2.19999 
        2.13531         16.1525         2.18459 
        2.14145          16.165         2.16931 
         2.1476         16.1589         2.15415 
        2.15372         16.1907         2.13921 
        2.15985         16.1548          2.1244 
        2.16599         16.1659         2.10969 
        2.17213         16.1838         2.09513 
        2.17827         16.2217         2.08072 
         2.1844         16.2207         2.06645 
        2.19054         16.1681         2.05231 
        2.19666         16.2174         2.03832 
         2.2028          16.236         2.02446 
        2.20893         16.1846         2.01071 
        2.21508         16.2456         1.99708 
        2.22122         16.2298         1.98357 
        2.22736         16.2441         1.97021 
        2.23349         16.2877         1.95698 
        2.23962         16.2402         1.94386 
        2.24577         16.2556         1.93086 
         2.2519         16.3077         1.91799 
        2.25802         16.2972         1.90525 
        2.26417         16.2673          1.8926 
        2.27031         16.2773         1.88005 
        2.27644         16.2742         1.86766 
        2.28257         16.3286         1.85537 
        2.28872         16.3048         1.84318 
        2.29486         16.3173         1.83109 
        2.30099         16.3419         1.81914 
        2.30712         16.3833         1.80729 
        2.31326         16.3582         1.79552 
         2.3194          16.356         1.78387 
        2.32553         16.3796         1.77234 
        2.33166         16.3818         1.76092 
         2.3378         16.3582         1.74958 
        2.34394         16.3901         1.73834 
        2.35007         16.3785         1.72722 
        2.35619         16.3666          1.7162 
        2.36233         16.4004         1.70526 
        2.36848         16.4151         1.69438 
        2.37462         16.4076         1.68363 
        2.38075         16.3896         1.67298 
        2.38689         16.4616         1.66241 
        2.39303         16.4413         1.65194 
        2.39916         16.4479         1.64156 
        2.40529         16.4525         1.63128 
        2.41143          16.442         1.62108 
        2.41757         16.4313         1.61096 
         2.4237         16.4676         1.60094 
        2.42983          16.434         1.59101 
        2.43598         16.4578         1.58114 
        2.44211         16.4705         1.57137 
        2.44823         16.4211          1.5617 
        2.45437         16.4557         1.55209 
        2.46052         16.4643         1.54255 
        2.46665         16.4769         1.53311 
        2.47279         16.4371         1.52375 
        2.47892         16.4941         1.51447 
        2.48507         16.4603         1.50525 
         2.4912         16.4791         1.49612 
