# k  (h/Mpc)    Pcb(k)  (Mpc/h)^3    Pcb_linear(k)  (Mpc/h)^3
     0.00783031         14027.3         14139.7 
       0.013688         17454.9         17375.6 
       0.019231         17470.9         17497.2 
      0.0249154         15784.9         16080.5 
      0.0312784         13693.2         13835.9 
      0.0375637         11696.3         11729.4 
      0.0433917         10000.8         10195.7 
      0.0492413         9037.38         9101.46 
      0.0555754         8026.17         8301.93 
      0.0619321         7709.86         7713.97 
       0.067871         6981.95         7202.18 
      0.0738098         6440.23         6637.03 
      0.0800417          5743.6         5971.07 
      0.0862327          5170.7         5284.44 
      0.0921407         4660.98         4674.86 
      0.0982031         4126.01         4152.19 
       0.104506         3855.42         3744.91 
       0.110769         3574.15         3466.69 
       0.116806         3363.14         3282.88 
       0.122832         3210.51         3138.33 
       0.129052         2994.26         2988.73 
       0.135211         2840.93         2814.74 
       0.141259         2702.41         2615.04 
       0.147318         2530.71         2399.88 
       0.153489          2305.8         2187.31 
       0.159709         2164.25         2000.39 
       0.165845         2074.97         1853.98 
       0.171974         1956.71         1745.64 
       0.178125         1867.57         1666.46 
       0.184229         1797.99          1604.1 
        0.19034         1698.42         1544.71 
       0.196428         1665.47         1479.19 
       0.202534         1602.41         1403.64 
       0.208729         1525.83         1319.37 
       0.214876         1453.37         1234.41 
       0.220989         1402.43         1155.52 
       0.227147         1339.57         1086.83 
        0.23329         1283.92         1031.04 
       0.239377         1261.82          987.08 
       0.245482         1181.87         950.933 
       0.251667         1177.68         918.144 
       0.257832         1135.88         885.452 
       0.263955         1097.31         850.765 
       0.270079          1058.5         813.545 
        0.27624         1046.74         774.779 
       0.282372         1002.42         736.978 
        0.28843         991.231         702.312 
       0.294538         941.287         671.343 
       0.300721         935.684         644.355 
        0.30691         898.023         621.087 
       0.313033         882.034         600.583 
       0.319153         860.805         581.258 
       0.325316         834.963         561.933 
        0.33145         814.627         542.293 
       0.337538         803.413         522.417 
       0.343633         781.861         502.578 
       0.349808         755.087         483.149 
       0.355968         750.098         465.025 
       0.362074         740.224         448.577 
       0.368217         718.919          433.62 
       0.374374         690.418         419.949 
       0.380519           689.6         407.244 
       0.386598          671.73         395.225 
       0.392688         669.434         383.399 
        0.39888         649.216          371.48 
       0.405048         639.851         359.729 
       0.411186         630.339         348.266 
       0.417313         616.458         337.255 
       0.423458         607.088         326.787 
       0.429607         597.104         316.945 
       0.435692         583.819         307.844 
       0.441815         579.725         299.237 
       0.447964         567.243         291.011 
       0.454126         558.216         283.074 
       0.460267         547.228         275.392 
       0.466387         540.826           267.9 
        0.47254         532.754         260.531 
       0.478662         529.928         253.411 
       0.484765         513.335         246.569 
       0.490885         509.631         239.989 
       0.497035          499.33          233.67 
       0.503198         494.545         227.641 
       0.509342         490.448         221.903 
       0.515458         485.738         216.414 
       0.521598         474.411         211.083 
       0.527764         465.825         205.886 
       0.533884         464.208         200.876 
           0.54         457.609         196.013 
       0.546137         455.642         191.274 
       0.552299         447.509         186.665 
       0.558452         444.767         182.221 
       0.564573         438.371         177.964 
       0.570708         431.918         173.857 
       0.576825         421.455          169.91 
       0.582926         420.854         166.102 
       0.589034         417.662         162.404 
       0.595184         413.847         158.787 
       0.601379         407.887         155.249 
       0.607522         401.607         151.844 
       0.613639         400.676         148.553 
       0.619772         390.842         145.352 
       0.625918         389.744         142.242 
       0.632068         383.916         139.222 
       0.638161         382.133          136.32 
         0.6443         375.507         133.482 
       0.650464          372.74         130.718 
       0.656582          370.44         128.054 
       0.662703          368.64         125.465 
       0.668861         361.961         122.934 
       0.675024         358.637         120.471 
       0.681124         356.072           118.1 
       0.687237          352.64         115.788 
       0.693381         347.872         113.527 
       0.699536          343.28         111.322 
       0.705665         341.344         109.185 
       0.711789         339.012         107.107 
       0.717957         336.298         105.069 
        0.72409         333.196         103.097 
       0.730186         329.367         101.188 
       0.736317          325.99         99.3177 
       0.742472         324.474         97.4886 
       0.748622         321.151         95.7079 
        0.75476         317.421          93.976 
       0.760888         313.729           92.29 
       0.767043         313.691          90.639 
       0.773185         309.829         89.0321 
       0.779291         305.052         87.4736 
       0.785407          304.51         85.9504 
       0.791564         300.508         84.4542 
       0.797719         298.007         82.9946 
       0.803834         295.861         81.5791 
       0.809972         293.958         80.1918 
       0.816124         293.887          78.834 
       0.822261         289.474         77.5115 
       0.828378         287.442         76.2236 
       0.834502         285.146         74.9641 
       0.840667          281.73         73.7251 
       0.846816         279.974         72.5179 
       0.852925         278.226         71.3455 
       0.859047         275.996         70.1968 
       0.865192         273.025         69.0699 
       0.871341         270.838         67.9671 
       0.877463         268.962         66.8936 
       0.883569         267.579         65.8462 
       0.889708         265.017         64.8161 
       0.895864         262.533         63.8054 
       0.902008         260.781         62.8187 
       0.908149         258.821         61.8535 
       0.914301          256.01         60.9072 
       0.920448          254.09         59.9817 
       0.926574         251.496         59.0788 
       0.932687         251.775         58.1966 
       0.938823         248.534         57.3294 
       0.944975         246.912          56.478 
       0.951105         245.079          55.647 
       0.957225         243.659         54.8343 
       0.963368         240.655         54.0352 
       0.969511         239.648         53.2521 
       0.975621         236.757         52.4888 
       0.981748         237.024         51.7387 
       0.987916         234.774         50.9985 
        0.99406          231.44         50.2757 
        1.00019           231.2         49.5684 
        1.00632         229.287         48.8755 
        1.01246         227.442         48.1949 
        1.01859         227.433         47.5284 
        1.02471         223.968         46.8755 
        1.03085         221.951         46.2326 
        1.03698          221.42         45.6033 
        1.04314         218.588         44.9831 
        1.04929         217.565         44.3759 
        1.05541         217.175         43.7825 
        1.06154         214.095         43.1985 
        1.06769         213.785         42.6243 
        1.07382         212.314         42.0626 
        1.07993         210.368         41.5122 
        1.08607         209.421         40.9695 
        1.09222         208.214          40.436 
        1.09836         206.364         39.9127 
        1.10449         203.934         39.3993 
        1.11063          202.07         38.8944 
        1.11677         201.853         38.3985 
         1.1229         200.244         37.9122 
        1.12903         198.722          37.434 
        1.13518          197.44         36.9637 
        1.14131         195.856         36.5017 
        1.14745         195.168          36.048 
        1.15359         193.592         35.6019 
        1.15973         192.618         35.1633 
        1.16584         190.437          34.734 
        1.17197           190.2         34.3113 
        1.17811         187.982         33.8944 
        1.18424         187.062         33.4857 
        1.19038         186.441         33.0826 
        1.19652         184.656         32.6862 
        1.20267         183.966         32.2964 
        1.20881         182.598         31.9131 
        1.21495         181.247         31.5366 
        1.22108         180.151         31.1663 
         1.2272          178.56         30.8028 
        1.23334         177.522         30.4443 
        1.23949         176.454         30.0907 
        1.24562         175.399         29.7437 
        1.25174         173.582         29.4028 
        1.25789         172.571         29.0662 
        1.26402         171.211         28.7354 
        1.27014          169.86         28.4107 
        1.27628         169.273           28.09 
        1.28244         168.886         27.7737 
        1.28858         167.047         27.4627 
        1.29471         165.384         27.1572 
        1.30084         165.144         26.8567 
        1.30697         163.543         26.5603 
        1.31312          162.46         26.2679 
        1.31925          161.74         25.9809 
        1.32537         160.608         25.6984 
        1.33151         159.166         25.4192 
        1.33765         158.259         25.1443 
        1.34378         157.547          24.874 
        1.34992          156.53         24.6076 
        1.35606         156.004         24.3444 
         1.3622         154.647         24.0856 
        1.36833         153.176         23.8312 
        1.37445         152.435         23.5806 
        1.38059         151.003         23.3328 
        1.38675         150.657          23.088 
        1.39288         149.569         22.8478 
        1.39901         149.214          22.611 
        1.40515         147.647         22.3771 
         1.4113         146.546         22.1466 
        1.41742         145.439         21.9203 
        1.42355         144.618         21.6967 
         1.4297         143.676         21.4755 
        1.43585         143.044         21.2576 
        1.44198         141.942         21.0435 
        1.44809         141.304         20.8328 
        1.45423         140.329         20.6242 
        1.46036         139.665         20.4188 
        1.46649         138.383         20.2162 
        1.47263         137.683         20.0161 
        1.47877         136.776         19.8189 
        1.48491          135.56          19.624 
        1.49104         135.194         19.4322 
        1.49718         133.705         19.2428 
        1.50333         133.197         19.0556 
        1.50947         132.664         18.8713 
         1.5156         131.662         18.6897 
        1.52172         130.598         18.5106 
        1.52787         129.843         18.3334 
          1.534          129.27         18.1587 
        1.54013         128.204         17.9865 
        1.54627         127.568         17.8163 
        1.55241         126.535         17.6482 
        1.55855         125.621         17.4825 
        1.56467         125.068         17.3194 
         1.5708         124.328          17.158 
        1.57695          123.47         16.9983 
        1.58308         122.861         16.8411 
        1.58922         122.308         16.6858 
        1.59535         121.221         16.5324 
         1.6015         120.896         16.3809 
        1.60764          119.79         16.2312 
        1.61376         119.195         16.0839 
        1.61989         118.225         15.9383 
        1.62604          117.62         15.7942 
        1.63218         117.211         15.6519 
        1.63831         116.243         15.5118 
        1.64444          115.66         15.3733 
        1.65059         114.805         15.2361 
        1.65673         114.013         15.1008 
        1.66285           113.5         14.9676 
        1.66898         112.778         14.8359 
        1.67512         112.291         14.7055 
        1.68127         111.409         14.5766 
         1.6874         110.443         14.4495 
        1.69353          110.14          14.324 
        1.69967         109.354         14.1997 
        1.70581         108.929         14.0769 
        1.71193          108.23         13.9561 
        1.71806         107.408         13.8364 
        1.72421          106.75         13.7179 
        1.73035           106.3         13.6009 
        1.73649         105.488         13.4853 
        1.74262         104.854         13.3711 
        1.74876         104.436         13.2582 
        1.75489          103.37         13.1468 
        1.76101         102.811         13.0368 
        1.76715         102.391         12.9278 
        1.77329         102.029           12.82 
        1.77943         100.871         12.7133 
        1.78557         100.518         12.6081 
        1.79171         99.8527          12.504 
        1.79785         99.2833          12.401 
        1.80399         98.5515         12.2993 
        1.81012         98.0113         12.1988 
        1.81625         97.5636         12.0995 
        1.82239         97.0707         12.0012 
        1.82853         96.3317          11.904 
        1.83466         95.7818          11.808 
        1.84078         95.3808         11.7131 
        1.84692         94.4095         11.6192 
        1.85306         94.0706         11.5261 
         1.8592          93.636         11.4342 
        1.86533         92.8059         11.3434 
        1.87147         92.4463         11.2535 
        1.87761         91.8177         11.1645 
        1.88375         91.0825         11.0765 
        1.88988         90.6844         10.9896 
        1.89601         90.0268         10.9036 
        1.90215         89.5283         10.8185 
        1.90829         89.0647         10.7343 
        1.91442         88.5612          10.651 
        1.92056         87.8687         10.5686 
         1.9267         87.6328          10.487 
        1.93284           87.03         10.4063 
        1.93897         86.3609         10.3265 
        1.94509         86.0889         10.2478 
        1.95123         85.4072         10.1697 
        1.95737         85.0616         10.0923 
        1.96349         84.3394          10.016 
        1.96964         83.8371         9.94018 
        1.97578         83.3781         9.86515 
        1.98192         83.1905         9.79105 
        1.98805         82.5484          9.7177 
        1.99419         82.1252          9.6451 
        2.00033         81.5235         9.57321 
        2.00647         81.1534         9.50207 
         2.0126         80.5275         9.43178 
        2.01874         79.9729          9.3621 
        2.02488         79.5689         9.29305 
        2.03101         79.0728         9.22484 
        2.03714         78.6582         9.15737 
        2.04328         78.1893         9.09051 
        2.04941         77.7513         9.02437 
        2.05554         77.2936         8.95894 
        2.06167         76.8824         8.89406 
        2.06781         76.3302         8.82982 
        2.07396         75.8814         8.76613 
        2.08009         75.5944         8.70318 
        2.08622         74.9478         8.64091 
        2.09237         74.4851         8.57914 
        2.09851         74.2331         8.51796 
        2.10464         73.6034         8.45748 
        2.11077         73.3984         8.39766 
        2.11691         73.0478         8.33828 
        2.12305         72.3751         8.27948 
        2.12918         72.0256         8.22138 
        2.13531         71.6172         8.16384 
        2.14145         71.2594         8.10672 
         2.1476         70.6888         8.05007 
        2.15372         70.4037         7.99425 
        2.15985          69.926         7.93891 
        2.16599         69.5915         7.88393 
        2.17213         69.0845         7.82953 
        2.17827         68.6965         7.77566 
         2.1844         68.3229         7.72234 
        2.19054         68.0778         7.66951 
        2.19666         67.6636         7.61724 
         2.2028         67.3667         7.56542 
        2.20893         66.8905         7.51405 
        2.21508         66.5498         7.46311 
        2.22122         66.1218         7.41262 
        2.22736         65.8092          7.3627 
        2.23349         65.3958         7.31326 
        2.23962         65.0224         7.26424 
        2.24577         64.7369         7.21563 
         2.2519         64.3763         7.16754 
        2.25802         63.8826         7.11996 
        2.26417         63.5151         7.07268 
        2.27031          63.205         7.02579 
        2.27644         62.7959         6.97946 
        2.28257         62.5338         6.93355 
        2.28872         62.1722         6.88797 
        2.29486         61.7479         6.84281 
        2.30099          61.419         6.79815 
        2.30712         61.1466         6.75386 
        2.31326         60.9096          6.7099 
         2.3194         60.5106         6.66636 
        2.32553         60.1493         6.62327 
        2.33166         59.8353         6.58058 
         2.3378         59.4549         6.53822 
        2.34394         59.1428         6.49621 
        2.35007         58.7664         6.45463 
        2.35619         58.5124         6.41347 
        2.36233         58.2034         6.37257 
        2.36848         57.8219         6.33194 
        2.37462         57.4518         6.29175 
        2.38075         57.3435         6.25195 
        2.38689         56.9631         6.21246 
        2.39303         56.6391         6.17331 
        2.39916         56.2809         6.13455 
        2.40529         56.1081         6.09612 
        2.41143         55.6992         6.05799 
        2.41757          55.443         6.02017 
         2.4237         55.2291         5.98275 
        2.42983         54.9082         5.94564 
        2.43598         54.5309         5.90875 
        2.44211         54.3079         5.87224 
        2.44823         53.9594         5.83611 
        2.45437         53.6185         5.80019 
        2.46052         53.4054         5.76455 
        2.46665         53.2217         5.72927 
        2.47279         52.8436         5.69429 
        2.47892          52.714         5.65958 
        2.48507         52.2389         5.62513 
         2.4912         52.0733         5.59104 
