# k  (h/Mpc)    P(k)  (Mpc/h)^3    P_linear(k)  (Mpc/h)^3
     0.00783031         1238.88         1240.07 
       0.013688         1523.34         1525.01 
       0.019231         1538.42         1536.74 
      0.0249154         1412.82         1412.93 
      0.0312784         1220.89         1216.11 
      0.0375637         1037.15         1031.18 
      0.0433917         898.677         896.469 
      0.0492413         806.749         800.341 
      0.0555754         729.072         730.099 
      0.0619321         686.081         678.435 
       0.067871         633.874         633.454 
      0.0738098         584.768          583.77 
      0.0800417         525.758         525.211 
      0.0862327         468.067         464.828 
      0.0921407         414.973         411.217 
      0.0982031         367.776         365.248 
       0.104506         335.453         329.427 
       0.110769         311.036         304.956 
       0.116806         292.524          288.79 
       0.122832         280.909         276.077 
       0.129052         265.747         262.919 
       0.135211         250.835         247.615 
       0.141259         234.582         230.048 
       0.147318         216.889         211.121 
       0.153489         197.378         192.423 
       0.159709         181.207         175.979 
       0.165845          170.28           163.1 
       0.171974         158.721          153.57 
       0.178125         152.345         146.604 
       0.184229         147.206         141.118 
        0.19034         140.216         135.894 
       0.196428         135.828          130.13 
       0.202534         130.068         123.484 
       0.208729         122.055         116.071 
       0.214876         114.106         108.597 
       0.220989         108.098         101.656 
       0.227147         101.186         95.6139 
        0.23329         96.3107         90.7058 
       0.239377         92.9074         86.8386 
       0.245482         88.5364         83.6586 
       0.251667         86.7423         80.7742 
       0.257832         83.8736         77.8981 
       0.263955         80.6381         74.8465 
       0.270079         77.4578         71.5723 
        0.27624          74.707         68.1617 
       0.282372         71.2948         64.8362 
        0.28843          68.023         61.7865 
       0.294538         65.3273         59.0621 
       0.300721         63.3495         56.6879 
        0.30691         60.5301         54.6407 
       0.313033          58.866         52.8369 
       0.319153         56.4259          51.137 
       0.325316         55.4534         49.4368 
        0.33145         53.5455         47.7088 
       0.337538         51.8788         45.9603 
       0.343633         49.9385         44.2149 
       0.349808         48.4359         42.5056 
       0.355968         46.8182         40.9112 
       0.362074         45.2828         39.4642 
       0.368217         43.9849         38.1483 
       0.374374          42.642         36.9456 
       0.380519         41.5664          35.828 
       0.386598         40.5493         34.7705 
       0.392688         39.5725         33.7301 
        0.39888         38.4903         32.6816 
       0.405048         37.4551         31.6477 
       0.411186         36.5236         30.6393 
       0.417313         35.3111         29.6704 
       0.423458         34.3725         28.7497 
       0.429607         33.4307         27.8837 
       0.435692          32.449         27.0832 
       0.441815         31.8298         26.3259 
       0.447964         31.2839         25.6022 
       0.454126         30.1405         24.9039 
       0.460267         29.5948         24.2281 
       0.466387         28.7273          23.569 
        0.47254         28.2649         22.9207 
       0.478662         27.7215         22.2943 
       0.484765         26.8697         21.6924 
       0.490885         26.2559         21.1135 
       0.497035         25.9125         20.5575 
       0.503198         25.2449         20.0271 
       0.509342         24.5804         19.5223 
       0.515458         24.1222         19.0394 
       0.521598          23.662         18.5704 
       0.527764         23.1225         18.1132 
       0.533884         22.7399         17.6724 
           0.54         22.2301         17.2446 
       0.546137         21.8477         16.8277 
       0.552299         21.4787         16.4222 
       0.558452         20.8222         16.0313 
       0.564573         20.5243         15.6567 
       0.570708         20.1765         15.2955 
       0.576825         19.6459         14.9482 
       0.582926         19.3279         14.6132 
       0.589034         18.8215         14.2878 
       0.595184         18.5615         13.9696 
       0.601379         18.1827         13.6584 
       0.607522         17.8998         13.3587 
       0.613639         17.6902         13.0692 
       0.619772         17.1997         12.7877 
       0.625918         17.1056          12.514 
       0.632068         16.8095         12.2484 
       0.638161          16.447          11.993 
         0.6443         16.1212         11.7434 
       0.650464         15.8179         11.5002 
       0.656582         15.6739         11.2658 
       0.662703         15.3934          11.038 
       0.668861         15.1234         10.8154 
       0.675024          14.838         10.5987 
       0.681124         14.5878         10.3901 
       0.687237         14.3646         10.1867 
       0.693381         14.2003         9.98776 
       0.699536         13.8159         9.79377 
       0.705665         13.6949         9.60579 
       0.711789         13.4623         9.42296 
       0.717957         13.2589         9.24369 
        0.72409         13.0371         9.07016 
       0.730186         12.8541         8.90222 
       0.736317         12.7222         8.73769 
       0.742472         12.5175         8.57677 
       0.748622         12.3302         8.42011 
        0.75476          12.098         8.26774 
       0.760888         11.9527         8.11941 
       0.767043          11.809         7.97416 
       0.773185          11.577         7.83279 
       0.779291         11.4924         7.69567 
       0.785407         11.3052         7.56167 
       0.791564         11.1365         7.43004 
       0.797719         10.9269         7.30163 
       0.803834         10.8685          7.1771 
       0.809972         10.7501         7.05504 
       0.816124         10.5277         6.93559 
       0.822261          10.388         6.81924 
       0.828378         10.2457         6.70593 
       0.834502          10.176         6.59513 
       0.840667         9.98565         6.48613 
       0.846816         9.82343         6.37992 
       0.852925         9.73759         6.27678 
       0.859047         9.61768         6.17572 
       0.865192         9.53841         6.07657 
       0.871341          9.4283         5.97956 
       0.877463         9.27525         5.88511 
       0.883569         9.12645         5.79297 
       0.889708         8.99392         5.70233 
       0.895864         8.92209         5.61342 
       0.902008         8.82006         5.52661 
       0.908149         8.72764         5.44169 
       0.914301         8.60048         5.35844 
       0.920448         8.48602         5.27702 
       0.926574         8.37359         5.19759 
       0.932687         8.29518         5.11997 
       0.938823          8.1925         5.04368 
       0.944975         8.08579         4.96877 
       0.951105         8.00682         4.89567 
       0.957225         7.95698         4.82417 
       0.963368          7.8516         4.75387 
       0.969511         7.75272         4.68497 
       0.975621         7.66268         4.61782 
       0.981748         7.58464         4.55182 
       0.987916         7.51113         4.48671 
        0.99406         7.38457         4.42312 
        1.00019         7.29535         4.36089 
        1.00632         7.26939         4.29993 
        1.01246         7.17697         4.24005 
        1.01859         7.08108         4.18142 
        1.02471         7.01576         4.12397 
        1.03085         6.94106         4.06742 
        1.03698         6.84673         4.01205 
        1.04314         6.80297         3.95749 
        1.04929         6.71433         3.90407 
        1.05541         6.63531         3.85186 
        1.06154         6.57927         3.80048 
        1.06769         6.54133         3.74997 
        1.07382         6.43619         3.70055 
        1.07993         6.36641         3.65213 
        1.08607         6.33212         3.60439 
        1.09222         6.25988         3.55745 
        1.09836           6.198         3.51141 
        1.10449         6.13855         3.46624 
        1.11063         6.07109         3.42182 
        1.11677         6.03134          3.3782 
         1.1229         5.96531         3.33541 
        1.12903          5.9021         3.29334 
        1.13518         5.83906         3.25196 
        1.14131         5.77183         3.21132 
        1.14745         5.70334          3.1714 
        1.15359         5.67705         3.13216 
        1.15973         5.61647         3.09357 
        1.16584         5.55131          3.0558 
        1.17197         5.50322         3.01862 
        1.17811         5.46632         2.98194 
        1.18424         5.41817         2.94598 
        1.19038         5.37968         2.91051 
        1.19652          5.3281         2.87565 
        1.20267         5.26325         2.84135 
        1.20881         5.24325         2.80763 
        1.21495         5.18692          2.7745 
        1.22108          5.1342         2.74192 
         1.2272          5.1056         2.70995 
        1.23334         5.04092         2.67841 
        1.23949         4.98782          2.6473 
        1.24562         4.96672         2.61677 
        1.25174         4.91182         2.58678 
        1.25789         4.87779         2.55716 
        1.26402         4.83367         2.52806 
        1.27014          4.7918         2.49949 
        1.27628         4.76233         2.47128 
        1.28244         4.69937         2.44346 
        1.28858          4.6828          2.4161 
        1.29471         4.62892         2.38922 
        1.30084         4.58529         2.36278 
        1.30697         4.58581          2.3367 
        1.31312         4.49824         2.31098 
        1.31925         4.48149         2.28573 
        1.32537         4.44599         2.26088 
        1.33151         4.42463         2.23631 
        1.33765         4.36807         2.21213 
        1.34378         4.34115         2.18835 
        1.34992         4.32421          2.1649 
        1.35606         4.26658         2.14175 
         1.3622         4.24766         2.11898 
        1.36833         4.20928          2.0966 
        1.37445         4.17764         2.07455 
        1.38059         4.16033         2.05276 
        1.38675         4.13288         2.03122 
        1.39288         4.09231         2.01008 
        1.39901         4.05699         1.98925 
        1.40515         4.02952         1.96868 
         1.4113         4.00625          1.9484 
        1.41742         3.97712         1.92848 
        1.42355         3.94699         1.90881 
         1.4297         3.91819         1.88936 
        1.43585         3.89609         1.87018 
        1.44198         3.88151         1.85135 
        1.44809         3.83919         1.83281 
        1.45423         3.81016         1.81446 
        1.46036         3.78299         1.79639 
        1.46649         3.75777         1.77856 
        1.47263         3.73288         1.76096 
        1.47877         3.70507         1.74361 
        1.48491         3.68188         1.72647 
        1.49104         3.66458         1.70959 
        1.49718         3.64339         1.69293 
        1.50333         3.62616         1.67646 
        1.50947         3.59624         1.66025 
         1.5156         3.57401         1.64427 
        1.52172         3.55618         1.62851 
        1.52787         3.53063         1.61292 
          1.534         3.51005         1.59755 
        1.54013         3.49224          1.5824 
        1.54627         3.46381         1.56742 
        1.55241         3.44467         1.55264 
        1.55855         3.43329         1.53806 
        1.56467         3.41461         1.52371 
         1.5708         3.38634         1.50951 
        1.57695         3.36467         1.49547 
        1.58308         3.35097         1.48163 
        1.58922         3.33933         1.46797 
        1.59535         3.32301         1.45448 
         1.6015         3.30486         1.44114 
        1.60764         3.29087         1.42798 
        1.61376         3.27362         1.41502 
        1.61989         3.25692         1.40221 
        1.62604         3.23782         1.38953 
        1.63218          3.2428         1.37701 
        1.63831         3.20812         1.36468 
        1.64444         3.19684          1.3525 
        1.65059         3.18992         1.34043 
        1.65673         3.18249         1.32853 
        1.66285         3.15626         1.31681 
        1.66898         3.15101         1.30522 
        1.67512         3.13848         1.29375 
        1.68127         3.12609         1.28241 
         1.6874         3.11812         1.27123 
        1.69353         3.10222         1.26018 
        1.69967         3.09866         1.24925 
        1.70581         3.09448         1.23845 
        1.71193         3.08289         1.22782 
        1.71806         3.07314         1.21729 
        1.72421         3.07009         1.20686 
        1.73035         3.06695         1.19657 
        1.73649         3.05306          1.1864 
        1.74262         3.04496         1.17635 
        1.74876         3.04355         1.16642 
        1.75489         3.02872         1.15662 
        1.76101         3.02114         1.14694 
        1.76715         3.03511         1.13735 
        1.77329         3.01873         1.12787 
        1.77943         3.00936         1.11848 
        1.78557         3.01161         1.10922 
        1.79171         3.00929         1.10007 
        1.79785         3.00573         1.09101 
        1.80399         3.01308         1.08206 
        1.81012         3.00772         1.07322 
        1.81625         3.00766         1.06448 
        1.82239         3.01311         1.05583 
        1.82853         3.00596         1.04728 
        1.83466         3.00394         1.03883 
        1.84078         3.00538         1.03049 
        1.84692         3.01311         1.02222 
        1.85306         3.01552         1.01404 
         1.8592         3.01506         1.00595 
        1.86533         3.02433        0.997962 
        1.87147         3.03272        0.990049 
        1.87761         3.02234        0.982219 
        1.88375           3.026        0.974482 
        1.88988         3.03499        0.966838 
        1.89601         3.03984        0.959271 
        1.90215         3.04299         0.95178 
        1.90829         3.05498        0.944372 
        1.91442         3.06167        0.937042 
        1.92056         3.07871        0.929797 
         1.9267         3.07691        0.922621 
        1.93284         3.08642        0.915516 
        1.93897         3.09861          0.9085 
        1.94509         3.11668        0.901572 
        1.95123         3.11501          0.8947 
        1.95737          3.1308        0.887894 
        1.96349         3.14687        0.881176 
        1.96964         3.16159        0.874509 
        1.97578         3.16933        0.867908 
        1.98192         3.18131        0.861389 
        1.98805         3.19716        0.854936 
        1.99419         3.20545        0.848549 
        2.00033         3.22458        0.842224 
        2.00647         3.24728        0.835966 
         2.0126         3.26424        0.829782 
        2.01874         3.26809        0.823651 
        2.02488         3.30236        0.817577 
        2.03101         3.32213        0.811576 
        2.03714         3.32849         0.80564 
        2.04328          3.3435        0.799758 
        2.04941         3.37749        0.793939 
        2.05554         3.39559        0.788182 
        2.06167         3.42334        0.782475 
        2.06781         3.44117        0.776823 
        2.07396         3.46069         0.77122 
        2.08009         3.49793        0.765681 
        2.08622         3.51077        0.760204 
        2.09237         3.53807        0.754769 
        2.09851         3.56876        0.749386 
        2.10464         3.59513        0.744065 
        2.11077         3.63405        0.738802 
        2.11691         3.65819        0.733579 
        2.12305         3.67977        0.728405 
        2.12918         3.71484        0.723294 
        2.13531         3.73226        0.718232 
        2.14145         3.76772        0.713206 
         2.1476         3.80755        0.708223 
        2.15372         3.83309        0.703312 
        2.15985         3.86603        0.698443 
        2.16599         3.90547        0.693606 
        2.17213         3.93849         0.68882 
        2.17827         3.97482        0.684081 
         2.1844         4.01394         0.67939 
        2.19054         4.06183        0.674742 
        2.19666         4.08701        0.670144 
         2.2028         4.11968        0.665584 
        2.20893         4.16159        0.661065 
        2.21508         4.17936        0.656583 
        2.22122         4.25851        0.652141 
        2.22736         4.31282         0.64775 
        2.23349         4.34547          0.6434 
        2.23962         4.39597        0.639087 
        2.24577         4.42799        0.634811 
         2.2519         4.46763         0.63058 
        2.25802          4.5249        0.626394 
        2.26417         4.56356        0.622235 
        2.27031         4.61141        0.618109 
        2.27644          4.6751        0.614033 
        2.28257         4.70622        0.609994 
        2.28872         4.76875        0.605984 
        2.29486         4.83277        0.602011 
        2.30099         4.87227        0.598082 
        2.30712         4.94451        0.594186 
        2.31326         5.00226        0.590318 
         2.3194         5.04066        0.586487 
        2.32553         5.08402        0.582697 
        2.33166         5.15187        0.578941 
         2.3378         5.20582        0.575214 
        2.34394         5.29084        0.571518 
        2.35007          5.3282         0.56786 
        2.35619         5.38709        0.564239 
        2.36233         5.47167         0.56064 
        2.36848         5.52159        0.557066 
        2.37462         5.59963         0.55353 
        2.38075         5.65747        0.550029 
        2.38689         5.77254        0.546554 
        2.39303         5.78465        0.543111 
        2.39916          5.8923          0.5397 
        2.40529         5.93254        0.536319 
        2.41143         6.02224        0.532965 
        2.41757         6.07514        0.529638 
         2.4237          6.1388        0.526345 
        2.42983           6.237        0.523081 
        2.43598         6.27258        0.519835 
        2.44211         6.38068        0.516623 
        2.44823         6.44322        0.513445 
        2.45437         6.54059        0.510285 
        2.46052           6.614        0.507149 
        2.46665         6.68501        0.504045 
        2.47279         6.74493        0.500967 
        2.47892          6.8335        0.497914 
        2.48507         6.94514        0.494883 
         2.4912         7.01099        0.491884 
