# k  (h/Mpc)    P(k)  (Mpc/h)^3    P_linear(k)  (Mpc/h)^3
     0.00783031         2743.03            2746 
       0.013688         3379.98          3375.8 
       0.019231         3407.39         3401.24 
      0.0249154         3119.46         3126.91 
      0.0312784         2698.34         2691.17 
      0.0375637         2294.53         2281.84 
      0.0433917         1983.08          1983.7 
      0.0492413         1782.75         1770.96 
      0.0555754         1605.82          1615.5 
      0.0619321         1518.27         1501.17 
       0.067871         1397.05         1401.63 
      0.0738098         1288.55         1291.69 
      0.0800417         1156.67         1162.11 
      0.0862327         1032.02          1028.5 
      0.0921407         917.239          909.87 
      0.0982031         811.975         808.155 
       0.104506         744.467         728.895 
       0.110769          690.26         674.749 
       0.116806         648.107         638.979 
       0.122832         622.637         610.849 
       0.129052         587.268         581.734 
       0.135211         554.849         547.872 
       0.141259         520.609         509.003 
       0.147318         482.444         467.126 
       0.153489         438.858         425.753 
       0.159709          404.63          389.37 
       0.165845          381.72         360.873 
       0.171974         355.795         339.786 
       0.178125         341.668         324.374 
       0.184229           330.3         312.236 
        0.19034         312.835         300.676 
       0.196428         304.608         287.924 
       0.202534         292.653         273.219 
       0.208729         275.028         256.816 
       0.214876         257.286         240.279 
       0.220989         245.158         224.922 
       0.227147         229.677         211.553 
        0.23329         219.077         200.694 
       0.239377         212.295         192.137 
       0.245482         200.805         185.101 
       0.251667         197.755         178.719 
       0.257832         191.757         172.355 
       0.263955         184.225         165.603 
       0.270079         177.187         158.359 
        0.27624         172.145         150.813 
       0.282372         164.581         143.455 
        0.28843          157.52         136.707 
       0.294538         151.233         130.679 
       0.300721         147.588         125.426 
        0.30691         140.834         120.896 
       0.313033         137.351         116.905 
       0.319153         131.439         113.144 
       0.325316         129.209         109.382 
        0.33145         124.629         105.559 
       0.337538         121.812          101.69 
       0.343633         117.459         97.8287 
       0.349808         113.937         94.0466 
       0.355968          110.84         90.5189 
       0.362074         107.238         87.3172 
       0.368217         104.424         84.4059 
       0.374374         101.476         81.7447 
       0.380519         99.0508         79.2719 
       0.386598         96.5921          76.932 
       0.392688         94.6287         74.6302 
        0.39888         92.2236         72.3102 
       0.405048         89.9626         70.0226 
       0.411186         87.9437         67.7915 
       0.417313         85.2726         65.6479 
       0.423458         83.2849         63.6106 
       0.429607         81.1815         61.6946 
       0.435692          78.501         59.9233 
       0.441815         77.6486         58.2478 
       0.447964         76.4069         56.6466 
       0.454126         73.2435         55.1016 
       0.460267         72.2798         53.6063 
       0.466387         70.5529         52.1481 
        0.47254         69.4852         50.7135 
       0.478662         68.4265         49.3277 
       0.484765         66.3527         47.9959 
       0.490885         65.0485          46.715 
       0.497035         64.2891         45.4849 
       0.503198          62.573         44.3114 
       0.509342         60.9907         43.1944 
       0.515458         60.0584          42.126 
       0.521598         59.1647         41.0883 
       0.527764         58.0576         40.0766 
       0.533884          57.138         39.1014 
           0.54          55.965         38.1549 
       0.546137         55.2445         37.2324 
       0.552299         54.4636         36.3352 
       0.558452         52.8494         35.4703 
       0.564573         52.0054         34.6415 
       0.570708         51.3928         33.8422 
       0.576825          50.243         33.0738 
       0.582926         49.3436         32.3326 
       0.589034         48.2271         31.6128 
       0.595184         47.6333         30.9087 
       0.601379         46.9175           30.22 
       0.607522         45.9384         29.5571 
       0.613639         45.6554         28.9165 
       0.619772           44.47         28.2936 
       0.625918         44.3117          27.688 
       0.632068         43.5852         27.1003 
       0.638161         42.8454         26.5354 
         0.6443         42.1032          25.983 
       0.650464          41.473         25.4448 
       0.656582         41.0831         24.9263 
       0.662703         40.3407         24.4223 
       0.668861         39.7079         23.9297 
       0.675024         39.1156         23.4503 
       0.681124         38.4257         22.9888 
       0.687237         37.8534         22.5388 
       0.693381         37.5797         22.0986 
       0.699536         36.7023         21.6694 
       0.705665         36.7223         21.2534 
       0.711789         35.8814         20.8489 
       0.717957         35.4827         20.4523 
        0.72409         34.9722         20.0683 
       0.730186         34.4726         19.6967 
       0.736317         34.2186         19.3327 
       0.742472         33.5977         18.9767 
       0.748622         33.3292           18.63 
        0.75476         32.8444         18.2929 
       0.760888         32.3607         17.9647 
       0.767043         32.0343         17.6433 
       0.773185         31.5148         17.3306 
       0.779291         31.4044         17.0272 
       0.785407         30.9953         16.7307 
       0.791564         30.4708         16.4394 
       0.797719         29.8652         16.1553 
       0.803834         29.8379         15.8798 
       0.809972         29.5137         15.6097 
       0.816124         28.9063         15.3454 
       0.822261         28.7127          15.088 
       0.828378         28.4094         14.8373 
       0.834502         28.1617         14.5921 
       0.840667         27.8095          14.351 
       0.846816         27.3683          14.116 
       0.852925         27.1167         13.8878 
       0.859047         26.8153         13.6642 
       0.865192         26.6002         13.4448 
       0.871341         26.4361         13.2302 
       0.877463         25.9033         13.0212 
       0.883569         25.6554         12.8173 
       0.889708         25.3658         12.6168 
       0.895864         25.1663         12.4201 
       0.902008         24.9575          12.228 
       0.908149         24.7047         12.0401 
       0.914301         24.6103         11.8559 
       0.920448         24.1413         11.6757 
       0.926574         23.9398            11.5 
       0.932687         23.7084         11.3283 
       0.938823          23.433         11.1595 
       0.944975         23.2151         10.9937 
       0.951105         23.0024          10.832 
       0.957225         22.7602         10.6738 
       0.963368         22.6169         10.5182 
       0.969511         22.3778         10.3658 
       0.975621         22.2226         10.2172 
       0.981748         21.9228         10.0712 
       0.987916         21.8269         9.92712 
        0.99406         21.5179         9.78643 
        1.00019          21.268         9.64875 
        1.00632         21.1921         9.51387 
        1.01246         21.0131         9.38139 
        1.01859         20.7191         9.25166 
        1.02471         20.6472         9.12456 
        1.03085         20.4444         8.99943 
        1.03698         20.1442         8.87692 
        1.04314         20.0364         8.75619 
        1.04929         19.8083         8.63801 
        1.05541         19.6333         8.52249 
        1.06154         19.4996         8.40882 
        1.06769         19.3778         8.29705 
        1.07382         19.1424          8.1877 
        1.07993         19.0447         8.08058 
        1.08607         18.8403         7.97493 
        1.09222         18.7164         7.87108 
        1.09836          18.518         7.76921 
        1.10449          18.388         7.66927 
        1.11063         18.2041         7.57099 
        1.11677         18.1332         7.47447 
         1.1229         18.0245         7.37982 
        1.12903         17.7709         7.28673 
        1.13518         17.5811         7.19518 
        1.14131         17.5291         7.10526 
        1.14745         17.3874         7.01693 
        1.15359         17.2979          6.9301 
        1.15973          17.099         6.84471 
        1.16584         16.8862         6.76115 
        1.17197          16.852         6.67888 
        1.17811         16.6998         6.59773 
        1.18424         16.5803         6.51817 
        1.19038         16.4952         6.43969 
        1.19652         16.3469         6.36255 
        1.20267         16.2036         6.28667 
        1.20881         16.1687         6.21205 
        1.21495         16.0418         6.13877 
        1.22108         15.8722         6.06668 
         1.2272         15.7423         5.99593 
        1.23334         15.6451         5.92615 
        1.23949         15.4636         5.85732 
        1.24562          15.434         5.78977 
        1.25174         15.3261          5.7234 
        1.25789         15.2317         5.65788 
        1.26402         15.1449          5.5935 
        1.27014         15.0229         5.53029 
        1.27628         14.8299         5.46787 
        1.28244         14.7903          5.4063 
        1.28858         14.7377         5.34577 
        1.29471         14.5743          5.2863 
        1.30084         14.4619         5.22779 
        1.30697         14.4149         5.17009 
        1.31312         14.2614         5.11318 
        1.31925         14.1554         5.05731 
        1.32537         14.1393         5.00234 
        1.33151         14.0325         4.94798 
        1.33765         13.9248         4.89447 
        1.34378         13.8429         4.84186 
        1.34992         13.7196         4.78999 
        1.35606         13.6888         4.73877 
         1.3622         13.5967         4.68839 
        1.36833         13.4671         4.63886 
        1.37445          13.427         4.59008 
        1.38059         13.3557         4.54185 
        1.38675         13.2303         4.49421 
        1.39288         13.1962         4.44743 
        1.39901         13.0653         4.40135 
        1.40515         13.0243         4.35582 
         1.4113         12.9503         4.31096 
        1.41742         12.8624         4.26689 
        1.42355         12.7864         4.22337 
         1.4297         12.7374         4.18032 
        1.43585         12.6723          4.1379 
        1.44198         12.6012         4.09622 
        1.44809         12.5239          4.0552 
        1.45423         12.4504          4.0146 
        1.46036         12.3795         3.97462 
        1.46649         12.3341         3.93518 
        1.47263         12.2436         3.89624 
        1.47877         12.1786         3.85785 
        1.48491         12.1227         3.81992 
        1.49104         12.0723         3.78258 
        1.49718         11.9957         3.74571 
        1.50333         11.9574         3.70928 
        1.50947         11.8732          3.6734 
         1.5156         11.8297         3.63806 
        1.52172         11.7834         3.60318 
        1.52787         11.7079         3.56869 
          1.534         11.6454         3.53469 
        1.54013         11.6183         3.50117 
        1.54627         11.5295         3.46803 
        1.55241         11.5112         3.43531 
        1.55855          11.442         3.40306 
        1.56467         11.4042         3.37131 
         1.5708         11.3546         3.33989 
        1.57695         11.2869         3.30881 
        1.58308         11.2487         3.27821 
        1.58922         11.2068         3.24797 
        1.59535         11.1809         3.21813 
         1.6015         11.1021         3.18862 
        1.60764         11.0368         3.15949 
        1.61376         11.0284         3.13082 
        1.61989         10.9981         3.10247 
        1.62604         10.9718         3.07442 
        1.63218          10.938         3.04673 
        1.63831         10.8878         3.01944 
        1.64444         10.8373         2.99249 
        1.65059         10.7998         2.96579 
        1.65673         10.7851         2.93946 
        1.66285         10.7132         2.91351 
        1.66898         10.6803         2.88788 
        1.67512         10.6726          2.8625 
        1.68127         10.6302          2.8374 
         1.6874          10.621         2.81266 
        1.69353         10.5632         2.78824 
        1.69967         10.5324         2.76404 
        1.70581         10.5302         2.74014 
        1.71193          10.466         2.71662 
        1.71806          10.468         2.69332 
        1.72421         10.4171         2.67025 
        1.73035         10.4193         2.64748 
        1.73649         10.4067         2.62498 
        1.74262         10.3684         2.60275 
        1.74876         10.3744         2.58077 
        1.75489          10.348         2.55909 
        1.76101          10.306         2.53767 
        1.76715         10.3011         2.51646 
        1.77329         10.2618         2.49547 
        1.77943         10.2125         2.47472 
        1.78557         10.2538         2.45423 
        1.79171         10.2297         2.43396 
        1.79785         10.2143         2.41393 
        1.80399         10.1854         2.39412 
        1.81012         10.1865         2.37456 
        1.81625         10.1799         2.35524 
        1.82239         10.1388         2.33609 
        1.82853         10.1589         2.31717 
        1.83466         10.1586         2.29848 
        1.84078         10.1205         2.28002 
        1.84692         10.1291         2.26173 
        1.85306         10.1197         2.24362 
         1.8592         10.1096         2.22573 
        1.86533         10.1078         2.20805 
        1.87147         10.1212         2.19054 
        1.87761         10.0992         2.17322 
        1.88375         10.1109          2.1561 
        1.88988         10.1083         2.13919 
        1.89601         10.1181         2.12245 
        1.90215         10.0764         2.10587 
        1.90829         10.0945         2.08948 
        1.91442         10.1172         2.07326 
        1.92056         10.1181         2.05723 
         1.9267         10.0988         2.04136 
        1.93284         10.1289         2.02564 
        1.93897         10.1107         2.01011 
        1.94509           10.14         1.99478 
        1.95123         10.1166         1.97958 
        1.95737          10.133         1.96452 
        1.96349          10.143         1.94966 
        1.96964         10.1555         1.93491 
        1.97578         10.1607          1.9203 
        1.98192         10.1631         1.90588 
        1.98805         10.2033          1.8916 
        1.99419         10.1676         1.87747 
        2.00033         10.2362         1.86347 
        2.00647         10.2235         1.84963 
         2.0126         10.2349         1.83594 
        2.01874         10.2779         1.82238 
        2.02488         10.3016         1.80894 
        2.03101         10.2861         1.79566 
        2.03714         10.2898         1.78253 
        2.04328         10.3545         1.76951 
        2.04941         10.3465         1.75664 
        2.05554         10.3496          1.7439 
        2.06167         10.3661         1.73127 
        2.06781         10.4004         1.71877 
        2.07396          10.408         1.70637 
        2.08009         10.4514         1.69412 
        2.08622         10.4839           1.682 
        2.09237         10.5054         1.66997 
        2.09851         10.5285         1.65806 
        2.10464         10.5451         1.64629 
        2.11077         10.5463         1.63465 
        2.11691         10.5832         1.62309 
        2.12305         10.6294         1.61164 
        2.12918         10.6616         1.60033 
        2.13531         10.6801         1.58913 
        2.14145         10.6988         1.57801 
         2.1476         10.7162         1.56699 
        2.15372         10.7621         1.55612 
        2.15985          10.776         1.54535 
        2.16599          10.808         1.53465 
        2.17213         10.8504         1.52406 
        2.17827         10.8707         1.51357 
         2.1844         10.9226         1.50319 
        2.19054         10.9268         1.49291 
        2.19666         10.9723         1.48273 
         2.2028           10.98         1.47265 
        2.20893         11.0236         1.46265 
        2.21508         11.0663         1.45273 
        2.22122         11.0971          1.4429 
        2.22736         11.1388         1.43319 
        2.23349         11.2069         1.42356 
        2.23962         11.2037         1.41402 
        2.24577         11.2367         1.40456 
         2.2519         11.2883          1.3952 
        2.25802         11.3246         1.38593 
        2.26417         11.3226         1.37673 
        2.27031         11.4005          1.3676 
        2.27644         11.3997         1.35859 
        2.28257         11.4525         1.34965 
        2.28872         11.4627         1.34078 
        2.29486         11.5066         1.33199 
        2.30099         11.5587         1.32329 
        2.30712         11.6038         1.31467 
        2.31326         11.6012         1.30611 
         2.3194         11.6507         1.29764 
        2.32553         11.7011         1.28925 
        2.33166         11.7509         1.28094 
         2.3378         11.7639          1.2727 
        2.34394         11.8263         1.26452 
        2.35007         11.8277         1.25643 
        2.35619         11.8637         1.24841 
        2.36233         11.9058         1.24045 
        2.36848         11.9462         1.23254 
        2.37462         11.9897         1.22472 
        2.38075         12.0347         1.21697 
        2.38689         12.0829         1.20928 
        2.39303         12.0826         1.20167 
        2.39916         12.1286         1.19412 
        2.40529         12.1765         1.18664 
        2.41143          12.217         1.17922 
        2.41757          12.265         1.17186 
         2.4237         12.2889         1.16457 
        2.42983         12.2581         1.15735 
        2.43598         12.3257         1.15017 
        2.44211         12.3868         1.14306 
        2.44823         12.3764         1.13603 
        2.45437         12.4263         1.12904 
        2.46052         12.5024          1.1221 
        2.46665         12.5136         1.11523 
        2.47279         12.5565         1.10842 
        2.47892         12.5607         1.10166 
        2.48507         12.6028         1.09496 
         2.4912         12.6341         1.08832 
