# k  (h/Mpc)    P(k)  (Mpc/h)^3    P_linear(k)  (Mpc/h)^3
     0.00783031            8040         8052.95 
       0.013688         9957.77         9894.92 
       0.019231         9996.79         9967.01 
      0.0249154         9084.35          9161.7 
      0.0312784         7871.71         7884.12 
      0.0375637         6709.71         6684.47 
      0.0433917          5764.3         5810.82 
      0.0492413         5197.18         5187.46 
      0.0555754         4645.41         4731.97 
      0.0619321         4433.44         4396.98 
       0.067871         4042.87         4105.35 
      0.0738098         3728.17         3783.28 
      0.0800417         3334.22         3403.72 
      0.0862327         2989.46         3012.35 
      0.0921407          2676.6         2664.89 
      0.0982031         2367.03         2366.97 
       0.104506         2194.65         2134.81 
       0.110769         2034.31         1976.22 
       0.116806         1909.57         1871.45 
       0.122832         1830.15         1789.05 
       0.129052         1714.59         1703.78 
       0.135211         1624.22          1604.6 
       0.141259         1535.57         1490.75 
       0.147318         1430.46          1368.1 
       0.153489         1301.57         1246.93 
       0.159709         1213.21         1140.37 
       0.165845         1154.11         1056.91 
       0.171974         1081.69         995.148 
       0.178125         1035.87         950.008 
       0.184229         1000.56         914.459 
        0.19034         941.093         880.602 
       0.196428         923.106         843.253 
       0.202534         889.625         800.186 
       0.208729         841.333         752.144 
       0.214876         792.766         703.712 
       0.220989         762.329         658.736 
       0.227147         721.004         619.581 
        0.23329         690.053         587.776 
       0.239377         674.476         562.716 
       0.245482         631.008         542.109 
       0.251667          626.65         523.418 
       0.257832         607.209          504.78 
       0.263955         585.212         485.005 
       0.270079         563.643         463.788 
        0.27624         555.042         441.688 
       0.282372         531.288         420.138 
        0.28843          516.56         400.375 
       0.294538         492.306         382.722 
       0.300721         487.273         367.336 
        0.30691         465.195          354.07 
       0.313033         456.649         342.381 
       0.319153         440.568         331.366 
       0.325316         429.113         320.349 
        0.33145         415.933         309.151 
       0.337538         411.178         297.821 
       0.343633         397.398         286.511 
       0.349808         384.442         275.435 
       0.355968         379.923         265.103 
       0.362074         370.847         255.726 
       0.368217         361.572           247.2 
       0.374374         348.312         239.406 
       0.380519         344.326         232.164 
       0.386598         336.064         225.311 
       0.392688          332.67         218.569 
        0.39888         323.763         211.775 
       0.405048         317.005         205.075 
       0.411186         310.467         198.541 
       0.417313         304.172         192.263 
       0.423458         299.328         186.296 
       0.429607         292.598         180.685 
       0.435692         284.403         175.497 
       0.441815         282.655          170.59 
       0.447964         277.344         165.901 
       0.454126         267.125         161.376 
       0.460267         264.317         156.997 
       0.466387         261.019         152.726 
        0.47254         255.351         148.525 
       0.478662         254.145         144.466 
       0.484765         246.361         140.565 
       0.490885         243.222         136.814 
       0.497035         239.907         133.211 
       0.503198          234.16         129.774 
       0.509342         231.961         126.503 
       0.515458         228.507         123.374 
       0.521598         225.123         120.335 
       0.527764         221.503         117.372 
       0.533884         218.853         114.516 
           0.54         215.474         111.744 
       0.546137         214.412         109.042 
       0.552299         210.262         106.415 
       0.558452         207.405         103.882 
       0.564573         203.972         101.454 
       0.570708         200.526         99.1135 
       0.576825         197.878          96.863 
       0.582926         195.133         94.6922 
       0.589034          192.85         92.5841 
       0.595184          190.82          90.522 
       0.601379         188.676         88.5051 
       0.607522         184.954         86.5636 
       0.613639         183.891         84.6876 
       0.619772         179.932         82.8631 
       0.625918         178.465         81.0898 
       0.632068         176.284         79.3685 
       0.638161         175.015         77.7139 
         0.6443         172.441         76.0961 
       0.650464         170.823         74.5201 
       0.656582         168.904         73.0014 
       0.662703         166.803         71.5255 
       0.668861         164.184         70.0827 
       0.675024         162.484         68.6787 
       0.681124          161.56         67.3272 
       0.687237         158.793         66.0091 
       0.693381         156.593         64.7199 
       0.699536         155.557         63.4629 
       0.705665         155.448         62.2448 
       0.711789         151.933           61.06 
       0.717957          151.42         59.8984 
        0.72409         149.301         58.7739 
       0.730186         147.105         57.6857 
       0.736317         146.299         56.6195 
       0.742472         145.308         55.5768 
       0.748622         143.876         54.5616 
        0.75476         142.623         53.5743 
       0.760888         140.674         52.6131 
       0.767043           139.7         51.6719 
       0.773185           138.2         50.7558 
       0.779291         136.339         49.8673 
       0.785407          135.51          48.999 
       0.791564         134.333          48.146 
       0.797719          132.26          47.314 
       0.803834          131.78          46.507 
       0.809972          130.17         45.7161 
       0.816124         129.836          44.942 
       0.822261         128.335         44.1881 
       0.828378         127.098         43.4539 
       0.834502         126.542         42.7359 
       0.840667         124.836         42.0296 
       0.846816          123.56         41.3413 
       0.852925         122.621          40.673 
       0.859047         121.304         40.0181 
       0.865192         120.667         39.3757 
       0.871341         119.495          38.747 
       0.877463         118.274          38.135 
       0.883569         117.349         37.5379 
       0.889708         116.563         36.9506 
       0.895864         115.544         36.3745 
       0.902008         114.591         35.8119 
       0.908149         114.006         35.2617 
       0.914301         112.797         34.7222 
       0.920448         111.959         34.1946 
       0.926574         111.142         33.6799 
       0.932687         110.802          33.177 
       0.938823         109.201         32.6826 
       0.944975         108.155         32.1972 
       0.951105         107.526         31.7235 
       0.957225         106.297         31.2602 
       0.963368         105.612         30.8046 
       0.969511         105.328         30.3582 
       0.975621         104.722         29.9231 
       0.981748         103.686         29.4954 
       0.987916         102.933         29.0735 
        0.99406         102.096         28.6614 
        1.00019         101.352         28.2582 
        1.00632         100.527         27.8632 
        1.01246         99.8346         27.4752 
        1.01859         98.7046         27.0952 
        1.02471          98.716          26.723 
        1.03085         97.6121         26.3565 
        1.03698         96.8783         25.9977 
        1.04314         96.0402         25.6442 
        1.04929         95.4806          25.298 
        1.05541          94.637         24.9597 
        1.06154         94.2767         24.6268 
        1.06769         93.7947         24.2995 
        1.07382         93.3312         23.9792 
        1.07993         92.6353         23.6655 
        1.08607         91.7602         23.3561 
        1.09222         91.3532         23.0519 
        1.09836         90.5223         22.7536 
        1.10449         89.9296         22.4609 
        1.11063         89.4316         22.1731 
        1.11677         88.8101         21.8904 
         1.1229         87.9279         21.6132 
        1.12903         87.0825         21.3405 
        1.13518         87.1586         21.0724 
        1.14131         86.5987         20.8091 
        1.14745         85.7012         20.5504 
        1.15359         85.3082         20.2961 
        1.15973         84.8289          20.046 
        1.16584         84.1195         19.8013 
        1.17197         83.6699         19.5603 
        1.17811         83.0972         19.3227 
        1.18424         82.4015         19.0897 
        1.19038         82.0182         18.8598 
        1.19652         81.6783         18.6339 
        1.20267         80.9574         18.4117 
        1.20881         80.6415         18.1932 
        1.21495         79.9729         17.9785 
        1.22108          79.445         17.7674 
         1.2272         78.6726         17.5602 
        1.23334         78.5135         17.3558 
        1.23949         77.9133         17.1542 
        1.24562         77.6475         16.9564 
        1.25174         77.1922         16.7621 
        1.25789          76.733         16.5702 
        1.26402         76.1758         16.3816 
        1.27014         75.4931         16.1965 
        1.27628         75.1998         16.0137 
        1.28244          74.776         15.8334 
        1.28858         74.3459         15.6561 
        1.29471         73.8597         15.4819 
        1.30084         73.4935         15.3106 
        1.30697         73.0142         15.1416 
        1.31312         72.6542         14.9749 
        1.31925         72.3757         14.8113 
        1.32537         71.9556         14.6503 
        1.33151         71.3845         14.4911 
        1.33765         70.9381         14.3344 
        1.34378         70.4034         14.1803 
        1.34992         70.1477         14.0284 
        1.35606         69.8156         13.8784 
         1.3622         69.3613         13.7308 
        1.36833         69.0673         13.5858 
        1.37445         68.7038         13.4429 
        1.38059         68.1414         13.3017 
        1.38675         67.7834         13.1621 
        1.39288         67.3497         13.0251 
        1.39901         67.1921         12.8902 
        1.40515         66.8754         12.7568 
         1.4113          66.369         12.6254 
        1.41742         66.1829         12.4964 
        1.42355         65.6493         12.3689 
         1.4297         65.2843         12.2429 
        1.43585         64.8927         12.1186 
        1.44198         64.7077         11.9966 
        1.44809         64.4104         11.8764 
        1.45423         64.1042         11.7575 
        1.46036         63.8296         11.6404 
        1.46649           63.43         11.5249 
        1.47263         63.1042         11.4109 
        1.47877          62.772         11.2984 
        1.48491         62.3891         11.1873 
        1.49104         62.0769          11.078 
        1.49718         61.6585           10.97 
        1.50333         61.4318         10.8633 
        1.50947         61.1381         10.7582 
         1.5156         60.8092         10.6547 
        1.52172         60.6473         10.5526 
        1.52787          60.395         10.4516 
          1.534         60.0518          10.352 
        1.54013         59.6705         10.2538 
        1.54627         59.3947         10.1568 
        1.55241         59.1011         10.0609 
        1.55855         58.6964         9.96649 
        1.56467         58.3858         9.87352 
         1.5708         58.3287         9.78147 
        1.57695         58.0576         9.69047 
        1.58308          57.678         9.60084 
        1.58922         57.6694         9.51228 
        1.59535         57.3715         9.42488 
         1.6015         56.8544         9.33846 
        1.60764          56.671         9.25316 
        1.61376         56.3758         9.16917 
        1.61989         56.0188         9.08616 
        1.62604         55.8306           9.004 
        1.63218         55.7109         8.92291 
        1.63831         55.3852           8.843 
        1.64444         55.0755         8.76405 
        1.65059         54.7404         8.68587 
        1.65673         54.6176         8.60874 
        1.66285         54.3043         8.53276 
        1.66898         54.0635         8.45768 
        1.67512         53.8046         8.38336 
        1.68127         53.5019         8.30986 
         1.6874         53.4287         8.23741 
        1.69353         53.1454         8.16587 
        1.69967         52.7783           8.095 
        1.70581         52.8285         8.02502 
        1.71193         52.4987         7.95612 
        1.71806         52.1138         7.88789 
        1.72421         52.0567         7.82032 
        1.73035          51.704         7.75363 
        1.73649         51.3971         7.68772 
        1.74262         51.2807         7.62264 
        1.74876         51.1112         7.55827 
        1.75489         50.8249         7.49478 
        1.76101         50.6891         7.43204 
        1.76715         50.4296         7.36993 
        1.77329         50.2363         7.30846 
        1.77943         49.9229         7.24766 
        1.78557            49.8         7.18765 
        1.79171          49.569         7.12831 
        1.79785         49.4249         7.06963 
        1.80399         49.1923         7.01162 
        1.81012         49.1017         6.95435 
        1.81625          48.632         6.89774 
        1.82239         48.5758         6.84168 
        1.82853         48.2049         6.78627 
        1.83466         48.0629         6.73153 
        1.84078         47.8353         6.67745 
        1.84692          47.605         6.62389 
        1.85306         47.4796         6.57084 
         1.8592         47.2707         6.51846 
        1.86533         47.0247         6.46668 
        1.87147         46.9268         6.41541 
        1.87761           46.84         6.36467 
        1.88375         46.4921         6.31454 
        1.88988         46.4819         6.26501 
        1.89601         46.1541         6.21597 
        1.90215         45.9405         6.16743 
        1.90829         45.8537         6.11943 
        1.91442         45.5615         6.07193 
        1.92056         45.4449         6.02498 
         1.9267         45.2225         5.97848 
        1.93284         45.0274         5.93244 
        1.93897          44.841         5.88698 
        1.94509         44.6275         5.84209 
        1.95123         44.5556         5.79756 
        1.95737         44.3189         5.75346 
        1.96349         44.1767         5.70993 
        1.96964          43.979         5.66672 
        1.97578         43.7909         5.62395 
        1.98192         43.6799         5.58171 
        1.98805          43.523         5.53989 
        1.99419         43.3009          5.4985 
        2.00033         43.0713         5.45752 
        2.00647         42.9837         5.41697 
         2.0126         42.8345         5.37689 
        2.01874         42.5993         5.33717 
        2.02488         42.5134         5.29781 
        2.03101         42.3316         5.25892 
        2.03714         42.1633         5.22046 
        2.04328         41.9225         5.18234 
        2.04941          41.764         5.14463 
        2.05554         41.5764         5.10733 
        2.06167         41.5849         5.07035 
        2.06781            41.3         5.03373 
        2.07396         41.1266         4.99742 
        2.08009         41.0132         4.96153 
        2.08622         40.7947         4.92603 
        2.09237         40.6304         4.89082 
        2.09851         40.4776         4.85594 
        2.10464         40.3905         4.82146 
        2.11077         40.1935         4.78736 
        2.11691         40.0325         4.75351 
        2.12305         39.7849         4.71998 
        2.12918         39.7861         4.68687 
        2.13531         39.5128         4.65406 
        2.14145         39.4798          4.6215 
         2.1476         39.2375          4.5892 
        2.15372         39.1069         4.55738 
        2.15985         38.9394         4.52583 
        2.16599         38.8819         4.49449 
        2.17213         38.6881         4.46348 
        2.17827          38.499         4.43276 
         2.1844          38.319         4.40237 
        2.19054         38.2136         4.37225 
        2.19666         38.0888         4.34245 
         2.2028         37.8871         4.31291 
        2.20893         37.8316         4.28363 
        2.21508         37.6706         4.25458 
        2.22122         37.4748          4.2258 
        2.22736         37.3544         4.19734 
        2.23349         37.1935         4.16916 
        2.23962         37.0535         4.14121 
        2.24577         36.9181          4.1135 
         2.2519         36.8041         4.08608 
        2.25802         36.6595         4.05896 
        2.26417         36.5022         4.03201 
        2.27031         36.4256         4.00527 
        2.27644         36.2669         3.97886 
        2.28257         36.0867         3.95269 
        2.28872          35.967         3.92671 
        2.29486         35.7882         3.90096 
        2.30099         35.7628          3.8755 
        2.30712         35.5895         3.85025 
        2.31326         35.5009         3.82519 
         2.3194         35.2768         3.80037 
        2.32553         35.1621         3.77581 
        2.33166         35.0609         3.75147 
         2.3378         34.8468         3.72732 
        2.34394         34.6629         3.70337 
        2.35007         34.6098         3.67967 
        2.35619         34.5042          3.6562 
        2.36233         34.4088         3.63288 
        2.36848         34.2254         3.60972 
        2.37462         34.1345         3.58681 
        2.38075         34.0144         3.56412 
        2.38689         33.9185         3.54161 
        2.39303         33.7507         3.51929 
        2.39916         33.5712         3.49719 
        2.40529         33.3894         3.47529 
        2.41143          33.411         3.45355 
        2.41757         33.2007         3.43199 
         2.4237         33.1725         3.41065 
        2.42983         32.9668          3.3895 
        2.43598          32.885         3.36847 
        2.44211         32.7459         3.34765 
        2.44823          32.627         3.32706 
        2.45437         32.5384         3.30658 
        2.46052         32.4255         3.28626 
        2.46665         32.3282         3.26615 
        2.47279         32.1909         3.24621 
        2.47892         32.0172         3.22642 
        2.48507         31.9627         3.20678 
         2.4912         31.8856         3.18735 
