# k  (h/Mpc)    P(k)  (Mpc/h)^3    P_linear(k)  (Mpc/h)^3
     0.00783031         77.9248         78.5896 
       0.013688         96.4094         96.7436 
       0.019231          97.536         97.5275 
      0.0249154         89.5586         89.6895 
      0.0312784         77.3262         77.2068 
      0.0375637          65.688          65.472 
      0.0433917         57.0706          56.922 
      0.0492413         50.9647         50.8202 
      0.0555754         46.4282         46.3611 
      0.0619321         43.1989         43.0813 
       0.067871         40.2456         40.2255 
      0.0738098         37.0694          37.071 
      0.0800417          33.337         33.3527 
      0.0862327         29.5438         29.5185 
      0.0921407         26.1622         26.1142 
      0.0982031         23.2371         23.1951 
       0.104506         20.9972         20.9204 
       0.110769         19.4189         19.3664 
       0.116806         18.3508         18.3398 
       0.122832         17.5571         17.5325 
       0.129052         16.6932         16.6969 
       0.135211         15.7089          15.725 
       0.141259         14.6194         14.6095 
       0.147318         13.4415         13.4076 
       0.153489         12.2418         12.2201 
       0.159709         11.2006         11.1759 
       0.165845         10.4049          10.358 
       0.171974         9.77285         9.75274 
       0.178125         9.32877         9.31037 
       0.184229          8.9838         8.96199 
        0.19034         8.62626         8.63019 
       0.196428         8.26841         8.26417 
       0.202534         7.87348         7.84212 
       0.208729         7.38941         7.37132 
       0.214876         6.90183         6.89668 
       0.220989         6.48713         6.45591 
       0.227147         6.08313         6.07218 
        0.23329         5.76934         5.76049 
       0.239377         5.52533         5.51489 
       0.245482         5.31922         5.31294 
       0.251667         5.14525         5.12975 
       0.257832         4.95472          4.9471 
       0.263955         4.76716          4.7533 
       0.270079         4.55753         4.54537 
        0.27624         4.35048         4.32878 
       0.282372         4.14194         4.11759 
        0.28843          3.9346         3.92391 
       0.294538          3.7633         3.75089 
       0.300721         3.62206         3.60011 
        0.30691         3.48634          3.4701 
       0.313033          3.3693         3.35554 
       0.319153         3.24828         3.24758 
       0.325316         3.16119         3.13961 
        0.33145         3.04471         3.02987 
       0.337538         2.93452         2.91883 
       0.343633         2.82136         2.80798 
       0.349808         2.71591         2.69943 
       0.355968         2.61585         2.59817 
       0.362074         2.52111         2.50628 
       0.368217         2.43884         2.42271 
       0.374374         2.35565         2.34633 
       0.380519         2.28966         2.27535 
       0.386598         2.22472         2.20819 
       0.392688         2.16304         2.14212 
        0.39888         2.09168         2.07553 
       0.405048         2.02773         2.00987 
       0.411186         1.96398         1.94583 
       0.417313         1.89998          1.8843 
       0.423458         1.84594         1.82583 
       0.429607         1.78611         1.77083 
       0.435692         1.73407         1.71999 
       0.441815         1.68776          1.6719 
       0.447964         1.64549         1.62594 
       0.454126          1.5967         1.58159 
       0.460267         1.55301         1.53867 
       0.466387         1.51008         1.49681 
        0.47254         1.46915         1.45564 
       0.478662         1.43209         1.41586 
       0.484765         1.39054         1.37763 
       0.490885         1.35587         1.34087 
       0.497035         1.32558         1.30556 
       0.503198         1.28737         1.27188 
       0.509342          1.2586         1.23982 
       0.515458         1.22432         1.20915 
       0.521598         1.19656         1.17937 
       0.527764         1.16331         1.15033 
       0.533884         1.13982         1.12234 
           0.54         1.11226         1.09517 
       0.546137         1.08662         1.06869 
       0.552299            1.06         1.04294 
       0.558452         1.03289         1.01811 
       0.564573         1.01105        0.994322 
       0.570708         0.98768        0.971381 
       0.576825        0.965309        0.949324 
       0.582926        0.946353         0.92805 
       0.589034        0.920923        0.907389 
       0.595184        0.901028        0.887178 
       0.601379         0.88312        0.867412 
       0.607522        0.865079        0.848384 
       0.613639        0.848493        0.829998 
       0.619772        0.827624        0.812117 
       0.625918        0.811734        0.794737 
       0.632068        0.795392        0.777867 
       0.638161        0.777571        0.761651 
         0.6443        0.761863        0.745795 
       0.650464        0.744862         0.73035 
       0.656582        0.731622        0.715465 
       0.662703        0.717296           0.701 
       0.668861         0.70428        0.686859 
       0.675024        0.689902          0.6731 
       0.681124        0.674244        0.659854 
       0.687237        0.663435        0.646936 
       0.693381        0.650936        0.634301 
       0.699536        0.636523        0.621981 
       0.705665        0.624985        0.610043 
       0.711789        0.614751        0.598431 
       0.717957        0.601934        0.587047 
        0.72409        0.592192        0.576026 
       0.730186        0.580436        0.565361 
       0.736317        0.571834        0.554912 
       0.742472        0.561014        0.544692 
       0.748622        0.550852        0.534743 
        0.75476        0.539472        0.525066 
       0.760888         0.53038        0.515646 
       0.767043        0.523099        0.506422 
       0.773185        0.512735        0.497444 
       0.779291        0.503881        0.488736 
       0.785407        0.496099        0.480225 
       0.791564        0.487504        0.471866 
       0.797719        0.479858        0.463711 
       0.803834         0.47203        0.455802 
       0.809972        0.463867        0.448051 
       0.816124        0.455812        0.440464 
       0.822261        0.448176        0.433075 
       0.828378        0.441417        0.425879 
       0.834502        0.434886        0.418842 
       0.840667        0.427088         0.41192 
       0.846816        0.420527        0.405175 
       0.852925        0.415095        0.398625 
       0.859047        0.408347        0.392207 
       0.865192        0.400997         0.38591 
       0.871341        0.395304        0.379749 
       0.877463        0.390086        0.373751 
       0.883569        0.383509        0.367899 
       0.889708        0.377494        0.362143 
       0.895864        0.371491        0.356497 
       0.902008        0.366266        0.350983 
       0.908149        0.360665         0.34559 
       0.914301        0.354618        0.340303 
       0.920448        0.349668        0.335132 
       0.926574        0.344509        0.330088 
       0.932687        0.339405        0.325159 
       0.938823         0.33569        0.320313 
       0.944975        0.330319        0.315556 
       0.951105        0.326129        0.310914 
       0.957225        0.322359        0.306373 
       0.963368        0.317231        0.301908 
       0.969511        0.312211        0.297533 
       0.975621        0.307854        0.293268 
       0.981748        0.304775        0.289077 
       0.987916        0.300347        0.284941 
        0.99406        0.295984        0.280903 
        1.00019        0.292584        0.276951 
        1.00632        0.288048        0.273079 
        1.01246           0.284        0.269277 
        1.01859        0.280788        0.265553 
        1.02471        0.276964        0.261905 
        1.03085        0.273879        0.258313 
        1.03698         0.26998        0.254797 
        1.04314        0.266391        0.251332 
        1.04929        0.262835        0.247939 
        1.05541        0.259877        0.244624 
        1.06154        0.256041        0.241361 
        1.06769        0.252921        0.238153 
        1.07382        0.249781        0.235014 
        1.07993        0.246475        0.231939 
        1.08607        0.244241        0.228907 
        1.09222        0.240675        0.225926 
        1.09836        0.238567        0.223002 
        1.10449        0.235254        0.220133 
        1.11063        0.231987        0.217312 
        1.11677         0.22905        0.214542 
         1.1229        0.226639        0.211825 
        1.12903        0.223833        0.209153 
        1.13518        0.221521        0.206525 
        1.14131        0.218789        0.203944 
        1.14745        0.215451        0.201409 
        1.15359        0.213452        0.198917 
        1.15973        0.210557        0.196466 
        1.16584        0.208841        0.194067 
        1.17197        0.206219        0.191706 
        1.17811        0.204154        0.189377 
        1.18424        0.202242        0.187093 
        1.19038        0.199363        0.184841 
        1.19652        0.196932        0.182626 
        1.20267        0.195506        0.180448 
        1.20881        0.193133        0.178307 
        1.21495        0.191257        0.176203 
        1.22108        0.188916        0.174134 
         1.2272        0.187125        0.172103 
        1.23334        0.184848          0.1701 
        1.23949        0.182921        0.168124 
        1.24562        0.180929        0.166186 
        1.25174        0.179283        0.164281 
        1.25789        0.177551          0.1624 
        1.26402        0.175272        0.160552 
        1.27014        0.173677        0.158738 
        1.27628        0.171972        0.156946 
        1.28244        0.169827        0.155179 
        1.28858        0.168222        0.153441 
        1.29471         0.16688        0.151734 
        1.30084        0.164842        0.150055 
        1.30697        0.163409        0.148399 
        1.31312        0.161123        0.146765 
        1.31925        0.159901        0.145162 
        1.32537        0.158607        0.143584 
        1.33151        0.157069        0.142024 
        1.33765         0.15557        0.140488 
        1.34378        0.153983        0.138978 
        1.34992         0.15249        0.137489 
        1.35606        0.150974        0.136018 
         1.3622        0.149626        0.134572 
        1.36833        0.148287        0.133151 
        1.37445        0.146306        0.131751 
        1.38059        0.145261        0.130366 
        1.38675        0.144256        0.128999 
        1.39288        0.143013        0.127656 
        1.39901        0.141481        0.126333 
        1.40515        0.140555        0.125027 
         1.4113        0.139019        0.123739 
        1.41742        0.137721        0.122474 
        1.42355        0.136814        0.121225 
         1.4297        0.135324        0.119989 
        1.43585        0.134273        0.118771 
        1.44198        0.133312        0.117575 
        1.44809        0.132123        0.116398 
        1.45423        0.130908        0.115232 
        1.46036        0.129696        0.114085 
        1.46649        0.129071        0.112953 
        1.47263         0.12771        0.111835 
        1.47877        0.126477        0.110733 
        1.48491        0.125691        0.109644 
        1.49104        0.124497        0.108573 
        1.49718        0.123453        0.107514 
        1.50333        0.122796        0.106469 
        1.50947        0.121743        0.105439 
         1.5156        0.120696        0.104424 
        1.52172         0.11981        0.103423 
        1.52787         0.11876        0.102433 
          1.534        0.117938        0.101457 
        1.54013        0.117097        0.100495 
        1.54627        0.116651       0.0995439 
        1.55241        0.115346       0.0986048 
        1.55855        0.114389       0.0976791 
        1.56467        0.113951        0.096768 
         1.5708         0.11276       0.0958659 
        1.57695        0.111468        0.094974 
        1.58308        0.110742       0.0940955 
        1.58922        0.109998       0.0932276 
        1.59535        0.109121        0.092371 
         1.6015        0.108324        0.091524 
        1.60764        0.107763        0.090688 
        1.61376         0.10675       0.0898649 
        1.61989        0.106312       0.0890513 
        1.62604         0.10578       0.0882461 
        1.63218        0.105097       0.0874513 
        1.63831        0.104363       0.0866682 
        1.64444        0.103874       0.0858943 
        1.65059        0.103159       0.0851282 
        1.65673        0.102648       0.0843722 
        1.66285        0.102459       0.0836276 
        1.66898        0.101787       0.0828917 
        1.67512        0.101354       0.0821633 
        1.68127        0.100912        0.081443 
         1.6874        0.100539       0.0807329 
        1.69353       0.0999317       0.0800317 
        1.69967         0.10009       0.0793372 
        1.70581       0.0994514       0.0786513 
        1.71193       0.0990655       0.0779761 
        1.71806       0.0986994       0.0773073 
        1.72421         0.09882       0.0766451 
        1.73035       0.0985854       0.0759915 
        1.73649       0.0983063       0.0753456 
        1.74262       0.0982378       0.0747077 
        1.74876       0.0979966       0.0740769 
        1.75489       0.0979782       0.0734546 
        1.76101       0.0979995       0.0728397 
        1.76715       0.0979257        0.072231 
        1.77329        0.097749       0.0716285 
        1.77943       0.0976506       0.0710327 
        1.78557       0.0979507       0.0704445 
        1.79171       0.0980148       0.0698629 
        1.79785       0.0983845       0.0692878 
        1.80399       0.0984662       0.0687193 
        1.81012       0.0987509        0.068158 
        1.81625       0.0988398       0.0676032 
        1.82239       0.0990685       0.0670537 
        1.82853       0.0992868       0.0665107 
        1.83466       0.0995306       0.0659742 
        1.84078        0.100002       0.0654442 
        1.84692         0.10007       0.0649192 
        1.85306        0.100941       0.0643993 
         1.8592        0.101438        0.063886 
        1.86533        0.101872       0.0633785 
        1.87147         0.10234        0.062876 
        1.87761        0.103044       0.0623787 
        1.88375        0.103516       0.0618874 
        1.88988        0.104011       0.0614019 
        1.89601        0.105115       0.0609214 
        1.90215        0.105402       0.0604456 
        1.90829        0.106221       0.0599751 
        1.91442        0.107346       0.0595096 
        1.92056        0.108254       0.0590495 
         1.9267        0.109001       0.0585938 
        1.93284        0.109893       0.0581426 
        1.93897        0.111034        0.057697 
        1.94509        0.112019        0.057257 
        1.95123        0.112851       0.0568206 
        1.95737        0.114243       0.0563883 
        1.96349        0.115771       0.0559617 
        1.96964        0.116427       0.0555383 
        1.97578        0.117815       0.0551191 
        1.98192         0.11924       0.0547051 
        1.98805        0.120791       0.0542953 
        1.99419        0.121902       0.0538896 
        2.00033        0.123762        0.053488 
        2.00647        0.125174       0.0530905 
         2.0126        0.126797       0.0526978 
        2.01874        0.128494       0.0523084 
        2.02488         0.12967       0.0519227 
        2.03101        0.132106       0.0515415 
        2.03714        0.134013       0.0511646 
        2.04328        0.135602        0.050791 
        2.04941         0.13774       0.0504214 
        2.05554        0.140079       0.0500559 
        2.06167        0.141701       0.0496934 
        2.06781        0.143787       0.0493345 
        2.07396        0.145584       0.0489786 
        2.08009         0.14873       0.0486269 
        2.08622          0.1509        0.048279 
        2.09237        0.152671       0.0479338 
        2.09851        0.156265        0.047592 
        2.10464        0.158299       0.0472541 
        2.11077        0.160597       0.0469198 
        2.11691        0.164161       0.0465881 
        2.12305        0.166992       0.0462596 
        2.12918        0.169295        0.045935 
        2.13531        0.172899       0.0456135 
        2.14145        0.175542       0.0452943 
         2.1476        0.179274       0.0449778 
        2.15372        0.182215       0.0446659 
        2.15985        0.184661       0.0443567 
        2.16599        0.188673       0.0440495 
        2.17213        0.193033       0.0437456 
        2.17827        0.196456       0.0434446 
         2.1844        0.200385       0.0431467 
        2.19054        0.204718       0.0428515 
        2.19666        0.209326       0.0425595 
         2.2028        0.212142       0.0422699 
        2.20893        0.217001       0.0419829 
        2.21508        0.220861       0.0416983 
        2.22122        0.226918       0.0414162 
        2.22736        0.229731       0.0411373 
        2.23349         0.23578        0.040861 
        2.23962        0.240021       0.0405872 
        2.24577        0.244958       0.0403156 
         2.2519        0.250969       0.0400469 
        2.25802        0.256517        0.039781 
        2.26417        0.261676       0.0395169 
        2.27031        0.267255       0.0392549 
        2.27644        0.272939        0.038996 
        2.28257        0.278719       0.0387395 
        2.28872        0.284157       0.0384849 
        2.29486        0.292069       0.0382325 
        2.30099        0.299904        0.037983 
        2.30712        0.306641       0.0377356 
        2.31326        0.313161       0.0374899 
         2.3194        0.320983       0.0372466 
        2.32553        0.328159       0.0370059 
        2.33166        0.335534       0.0367674 
         2.3378        0.343746       0.0365307 
        2.34394        0.352807        0.036296 
        2.35007        0.359345       0.0360637 
        2.35619        0.370388       0.0358337 
        2.36233        0.378506       0.0356052 
        2.36848        0.387166       0.0353782 
        2.37462        0.396247       0.0351536 
        2.38075        0.407918       0.0349312 
        2.38689        0.417172       0.0347106 
        2.39303        0.425881       0.0344919 
        2.39916        0.437165       0.0342753 
        2.40529        0.450239       0.0340606 
        2.41143        0.458591       0.0338476 
        2.41757        0.472836       0.0336362 
         2.4237          0.4876       0.0334271 
        2.42983        0.494909       0.0332198 
        2.43598        0.507781       0.0330137 
        2.44211        0.523417       0.0328097 
        2.44823        0.533173       0.0326079 
        2.45437        0.550127       0.0324072 
        2.46052        0.564678        0.032208 
        2.46665        0.579603       0.0320109 
        2.47279        0.593617       0.0318155 
        2.47892        0.606944       0.0316215 
        2.48507        0.627846       0.0314291 
         2.4912         0.64262       0.0312386 
