# k  (h/Mpc)    Pcb(k)  (Mpc/h)^3    Pcb_linear(k)  (Mpc/h)^3
     0.00783031         1051.89         1056.04 
       0.013688         1293.11          1299.5 
       0.019231          1306.3         1309.53 
      0.0249154         1200.24         1204.05 
      0.0312784         1037.02         1036.35 
      0.0375637         880.823         878.769 
      0.0433917         763.537         763.977 
      0.0492413         685.251         682.061 
      0.0555754         619.626         622.201 
      0.0619321         582.592         578.175 
       0.067871         538.639         539.843 
      0.0738098         496.924         497.503 
      0.0800417          446.89         447.598 
      0.0862327         397.696         396.139 
      0.0921407         352.466          350.45 
      0.0982031         312.448         311.275 
       0.104506         284.736         280.747 
       0.110769         264.006         259.893 
       0.116806         248.386         246.116 
       0.122832         238.481         235.282 
       0.129052          225.72         224.068 
       0.135211         213.022         211.026 
       0.141259         199.111         196.055 
       0.147318         184.017         179.925 
       0.153489          167.48         163.989 
       0.159709         153.665         149.976 
       0.165845         144.292             139 
       0.171974         134.528         130.878 
       0.178125         129.096         124.941 
       0.184229         124.725         120.266 
        0.19034         118.917         115.814 
       0.196428         115.089         110.902 
       0.202534         110.137         105.238 
       0.208729         103.338           98.92 
       0.214876         96.6078         92.5504 
       0.220989         91.4266         86.6356 
       0.227147         85.5877         81.4858 
        0.23329         81.4368         77.3029 
       0.239377         78.4965         74.0071 
       0.245482         74.8951         71.2971 
       0.251667         73.3069         68.8388 
       0.257832         70.8431         66.3878 
       0.263955          68.122         63.7871 
       0.270079         65.4179         60.9966 
        0.27624          63.017         58.0901 
       0.282372         60.1152          55.256 
        0.28843         57.3386         52.6569 
       0.294538         55.0567          50.335 
       0.300721          53.337         48.3116 
        0.30691         50.9797          46.567 
       0.313033         49.5588         45.0297 
       0.319153         47.5334         43.5809 
       0.325316         46.6824         42.1319 
        0.33145         45.0894         40.6594 
       0.337538         43.6268         39.1692 
       0.343633         41.9828         37.6817 
       0.349808         40.7096         36.2251 
       0.355968         39.3173         34.8662 
       0.362074         38.0264         33.6329 
       0.368217          36.917         32.5115 
       0.374374         35.7731         31.4866 
       0.380519         34.8632          30.534 
       0.386598          34.009         29.6328 
       0.392688         33.1689         28.7461 
        0.39888         32.2499         27.8525 
       0.405048         31.3647         26.9715 
       0.411186         30.5675          26.112 
       0.417313         29.5471         25.2864 
       0.423458         28.7535         24.5016 
       0.429607         27.9485         23.7637 
       0.435692         27.1457         23.0813 
       0.441815         26.5882          22.436 
       0.447964         26.1211         21.8192 
       0.454126         25.1891         21.2242 
       0.460267         24.7089         20.6482 
       0.466387         23.9772         20.0865 
        0.47254         23.5703         19.5339 
       0.478662         23.0996         19.0001 
       0.484765         22.3936         18.4871 
       0.490885         21.8732         17.9938 
       0.497035         21.5763           17.52 
       0.503198         21.0184         17.0679 
       0.509342          20.469         16.6377 
       0.515458         20.0745         16.2262 
       0.521598         19.6757         15.8265 
       0.527764         19.2134         15.4368 
       0.533884         18.8914         15.0612 
           0.54         18.4608         14.6966 
       0.546137         18.1317         14.3413 
       0.552299         17.8109         13.9957 
       0.558452         17.2733         13.6625 
       0.564573         17.0204         13.3433 
       0.570708         16.7181         13.0354 
       0.576825         16.2763         12.7394 
       0.582926         16.0162         12.4539 
       0.589034         15.5897         12.1767 
       0.595184         15.3653         11.9055 
       0.601379         15.0422         11.6402 
       0.607522         14.8126         11.3849 
       0.613639         14.6289         11.1381 
       0.619772         14.2207         10.8982 
       0.625918         14.1243         10.6649 
       0.632068         13.8801         10.4386 
       0.638161         13.5741          10.221 
         0.6443         13.3031         10.0082 
       0.650464         13.0427         9.80091 
       0.656582         12.9167         9.60116 
       0.662703         12.6843         9.40706 
       0.668861         12.4671         9.21729 
       0.675024         12.2228         9.03264 
       0.681124          12.015          8.8549 
       0.687237         11.8329         8.68154 
       0.693381         11.6826         8.51199 
       0.699536          11.367         8.34666 
       0.705665         11.2483         8.18645 
       0.711789         11.0652         8.03063 
       0.717957         10.8902         7.87785 
        0.72409         10.7038         7.72997 
       0.730186         10.5496         7.58684 
       0.736317         10.4416         7.44662 
       0.742472          10.276         7.30948 
       0.748622         10.1071         7.17596 
        0.75476         9.91336         7.04611 
       0.760888         9.79437          6.9197 
       0.767043         9.67576         6.79591 
       0.773185         9.48057         6.67543 
       0.779291         9.40029         6.55857 
       0.785407         9.24561         6.44437 
       0.791564         9.10964         6.33219 
       0.797719         8.94835         6.22275 
       0.803834          8.8845         6.11662 
       0.809972         8.78162          6.0126 
       0.816124         8.60353          5.9108 
       0.822261         8.47731         5.81164 
       0.828378         8.36436         5.71508 
       0.834502         8.30442         5.62064 
       0.840667         8.13956         5.52775 
       0.846816          8.0115         5.43723 
       0.852925         7.94191         5.34933 
       0.859047         7.84029          5.2632 
       0.865192         7.76868         5.17871 
       0.871341         7.67758         5.09603 
       0.877463         7.55694         5.01554 
       0.883569         7.42857         4.93701 
       0.889708         7.32067         4.85977 
       0.895864         7.25702         4.78399 
       0.902008         7.16568         4.71001 
       0.908149         7.09155         4.63764 
       0.914301         6.97445         4.56669 
       0.920448         6.88953          4.4973 
       0.926574         6.79201          4.4296 
       0.932687         6.72754         4.36346 
       0.938823         6.64787         4.29843 
       0.944975         6.55858          4.2346 
       0.951105         6.49225         4.17229 
       0.957225         6.45235         4.11136 
       0.963368         6.36216         4.05144 
       0.969511         6.27845         3.99273 
       0.975621         6.19766          3.9355 
       0.981748         6.13825         3.87925 
       0.987916          6.0728         3.82376 
        0.99406         5.96868         3.76956 
        1.00019           5.904         3.71653 
        1.00632         5.87092         3.66458 
        1.01246         5.79654         3.61355 
        1.01859         5.72067         3.56358 
        1.02471         5.66277         3.51462 
        1.03085         5.60208         3.46642 
        1.03698         5.52564         3.41924 
        1.04314         5.48839         3.37274 
        1.04929         5.41484         3.32721 
        1.05541         5.35263         3.28272 
        1.06154         5.30374         3.23893 
        1.06769         5.27078         3.19588 
        1.07382          5.1878         3.15376 
        1.07993         5.12424          3.1125 
        1.08607         5.09918         3.07181 
        1.09222         5.03625         3.03181 
        1.09836         4.98969         2.99257 
        1.10449         4.93916         2.95407 
        1.11063         4.88205         2.91622 
        1.11677         4.84486         2.87904 
         1.1229         4.78824         2.84258 
        1.12903         4.73998         2.80672 
        1.13518         4.69383         2.77146 
        1.14131         4.63323         2.73682 
        1.14745         4.57375          2.7028 
        1.15359          4.5534         2.66936 
        1.15973          4.4997         2.63647 
        1.16584         4.45721         2.60428 
        1.17197          4.4145         2.57259 
        1.17811         4.37925         2.54133 
        1.18424          4.3425         2.51069 
        1.19038         4.30612         2.48046 
        1.19652         4.26433         2.45075 
        1.20267         4.21545         2.42152 
        1.20881         4.19066         2.39278 
        1.21495         4.14716         2.36455 
        1.22108         4.10784         2.33678 
         1.2272         4.08349         2.30953 
        1.23334         4.03023         2.28265 
        1.23949         3.98683         2.25614 
        1.24562         3.96923         2.23012 
        1.25174         3.92225         2.20456 
        1.25789         3.89488         2.17932 
        1.26402         3.85557         2.15452 
        1.27014         3.81974         2.13017 
        1.27628         3.80153         2.10613 
        1.28244         3.74957         2.08242 
        1.28858         3.73175          2.0591 
        1.29471         3.69072         2.03619 
        1.30084         3.65546         2.01366 
        1.30697         3.65021         1.99143 
        1.31312         3.58225         1.96951 
        1.31925         3.57028         1.94799 
        1.32537         3.54097         1.92682 
        1.33151         3.52134         1.90588 
        1.33765         3.47659         1.88527 
        1.34378         3.45242           1.865 
        1.34992         3.44025         1.84502 
        1.35606         3.39058         1.82529 
         1.3622         3.37619         1.80589 
        1.36833         3.34542         1.78681 
        1.37445         3.31857         1.76802 
        1.38059         3.30378         1.74945 
        1.38675         3.28277         1.73109 
        1.39288         3.24698         1.71308 
        1.39901         3.22157         1.69533 
        1.40515         3.19743         1.67779 
         1.4113         3.17701         1.66051 
        1.41742         3.15391         1.64354 
        1.42355         3.13404         1.62677 
         1.4297         3.10665         1.61019 
        1.43585         3.08867         1.59385 
        1.44198         3.07547          1.5778 
        1.44809         3.04144           1.562 
        1.45423         3.01809         1.54636 
        1.46036         2.99628         1.53096 
        1.46649         2.97537         1.51577 
        1.47263         2.95538         1.50077 
        1.47877         2.93135         1.48598 
        1.48491         2.91226         1.47137 
        1.49104         2.90012         1.45699 
        1.49718         2.88157         1.44279 
        1.50333         2.86606         1.42875 
        1.50947         2.84483         1.41493 
         1.5156         2.82464         1.40132 
        1.52172         2.81025         1.38788 
        1.52787         2.78889          1.3746 
          1.534         2.77327          1.3615 
        1.54013         2.75741         1.34859 
        1.54627         2.73391         1.33583 
        1.55241         2.71825         1.32322 
        1.55855         2.70893          1.3108 
        1.56467         2.69304         1.29857 
         1.5708         2.66987         1.28647 
        1.57695         2.65399          1.2745 
        1.58308         2.64308         1.26271 
        1.58922         2.63133         1.25106 
        1.59535         2.61739         1.23957 
         1.6015         2.60529          1.2282 
        1.60764          2.5928         1.21698 
        1.61376          2.5792         1.20594 
        1.61989         2.56122         1.19502 
        1.62604         2.54923         1.18421 
        1.63218          2.5495         1.17355 
        1.63831         2.52273         1.16304 
        1.64444         2.51292         1.15266 
        1.65059          2.5104         1.14237 
        1.65673         2.50007         1.13223 
        1.66285          2.4814         1.12224 
        1.66898         2.47974         1.11236 
        1.67512         2.46661         1.10259 
        1.68127         2.45511         1.09292 
         1.6874            2.45         1.08339 
        1.69353         2.43586         1.07398 
        1.69967         2.43367         1.06466 
        1.70581         2.43311         1.05546 
        1.71193         2.42328          1.0464 
        1.71806         2.41418         1.03742 
        1.72421         2.41141         1.02854 
        1.73035         2.40991         1.01976 
        1.73649         2.39855          1.0111 
        1.74262         2.39392         1.00254 
        1.74876         2.39025        0.994071 
        1.75489         2.37931        0.985721 
        1.76101         2.37567        0.977469 
        1.76715         2.38409        0.969301 
        1.77329         2.37121        0.961216 
        1.77943         2.36723         0.95322 
        1.78557         2.36604        0.945327 
        1.79171         2.36788        0.937523 
        1.79785         2.36254        0.929805 
        1.80399          2.3697        0.922176 
        1.81012         2.36789        0.914643 
        1.81625         2.36768        0.907198 
        1.82239         2.37436        0.899825 
        1.82853          2.3659        0.892538 
        1.83466          2.3648        0.885338 
        1.84078          2.3672        0.878226 
        1.84692         2.37236        0.871181 
        1.85306         2.37661        0.864204 
         1.8592         2.37816        0.857315 
        1.86533         2.38758        0.850505 
        1.87147         2.39526        0.843762 
        1.87761         2.38923        0.837089 
        1.88375         2.38972        0.830495 
        1.88988         2.39885         0.82398 
        1.89601         2.40656        0.817532 
        1.90215         2.40988        0.811147 
        1.90829         2.41883        0.804834 
        1.91442         2.42568        0.798587 
        1.92056         2.43811        0.792412 
         1.9267         2.43868        0.786297 
        1.93284          2.4487        0.780242 
        1.93897         2.46009        0.774262 
        1.94509         2.47816        0.768358 
        1.95123         2.47865        0.762501 
        1.95737         2.49113        0.756701 
        1.96349         2.50747        0.750976 
        1.96964         2.51616        0.745294 
        1.97578         2.52853        0.739669 
        1.98192         2.53884        0.734113 
        1.98805         2.54941        0.728613 
        1.99419         2.56102         0.72317 
        2.00033         2.58044         0.71778 
        2.00647         2.60212        0.712446 
         2.0126         2.61086        0.707176 
        2.01874         2.62231        0.701951 
        2.02488           2.649        0.696774 
        2.03101         2.66616        0.691659 
        2.03714          2.6764        0.686601 
        2.04328         2.68711        0.681588 
        2.04941         2.71819        0.676629 
        2.05554         2.74059        0.671723 
        2.06167         2.75929        0.666859 
        2.06781         2.77623        0.662042 
        2.07396         2.80011        0.657267 
        2.08009         2.82764        0.652546 
        2.08622         2.84112        0.647878 
        2.09237         2.86786        0.643246 
        2.09851         2.89547        0.638659 
        2.10464         2.91965        0.634124 
        2.11077         2.95217        0.629639 
        2.11691         2.97572        0.625187 
        2.12305         2.99848        0.620778 
        2.12918         3.03164        0.616422 
        2.13531         3.04828        0.612108 
        2.14145         3.07789        0.607825 
         2.1476         3.11488        0.603578 
        2.15372         3.14698        0.599393 
        2.15985         3.17157        0.595243 
        2.16599          3.2087        0.591121 
        2.17213         3.24455        0.587042 
        2.17827         3.27627        0.583003 
         2.1844         3.31427        0.579005 
        2.19054         3.35184        0.575044 
        2.19666         3.37806        0.571125 
         2.2028         3.40148         0.56724 
        2.20893          3.4523        0.563388 
        2.21508         3.46563        0.559568 
        2.22122         3.54162        0.555783 
        2.22736         3.59165         0.55204 
        2.23349         3.62003        0.548333 
        2.23962         3.66675        0.544658 
        2.24577         3.69979        0.541013 
         2.2519          3.7427        0.537407 
        2.25802         3.78943         0.53384 
        2.26417         3.83319        0.530295 
        2.27031          3.8833        0.526779 
        2.27644         3.93439        0.523306 
        2.28257         3.96965        0.519863 
        2.28872         4.01923        0.516446 
        2.29486          4.0828         0.51306 
        2.30099         4.12581        0.509711 
        2.30712         4.18999        0.506391 
        2.31326         4.24649        0.503095 
         2.3194         4.28464         0.49983 
        2.32553         4.33577        0.496599 
        2.33166         4.39838        0.493399 
         2.3378         4.44441        0.490222 
        2.34394         4.53586        0.487073 
        2.35007         4.56925        0.483955 
        2.35619         4.62609        0.480869 
        2.36233         4.71607        0.477802 
        2.36848         4.75839        0.474756 
        2.37462         4.84651        0.471742 
        2.38075         4.89743        0.468758 
        2.38689         4.99594        0.465797 
        2.39303         5.02227        0.462862 
        2.39916         5.11783        0.459956 
        2.40529         5.16647        0.457075 
        2.41143         5.24362        0.454216 
        2.41757           5.316         0.45138 
         2.4237         5.37383        0.448574 
        2.42983         5.47529        0.445792 
        2.43598         5.50923        0.443026 
        2.44211         5.61617        0.440288 
        2.44823         5.69376         0.43758 
        2.45437         5.76988        0.434887 
        2.46052          5.8603        0.432214 
        2.46665         5.93432        0.429569 
        2.47279         6.00038        0.426946 
        2.47892         6.09105        0.424344 
        2.48507         6.20276        0.421761 
         2.4912         6.27758        0.419204 
