# k  (h/Mpc)    Pcb(k)  (Mpc/h)^3    Pcb_linear(k)  (Mpc/h)^3
     0.00783031         11494.8         11579.6 
       0.013688         14279.9         14231.1 
       0.019231         14311.4         14331.5 
      0.0249154         12960.9         13171.7 
      0.0312784         11239.2         11333.5 
      0.0375637         9592.25         9608.26 
      0.0433917         8217.32         8352.01 
      0.0492413         7419.14         7455.74 
      0.0555754          6606.1         6800.86 
      0.0619321         6329.99         6319.25 
       0.067871         5748.14         5900.03 
      0.0738098          5301.3         5437.09 
      0.0800417         4733.03         4891.55 
      0.0862327            4254         4329.07 
      0.0921407         3824.11         3829.71 
      0.0982031         3383.23         3401.54 
       0.104506            3152          3067.9 
       0.110769         2921.76         2839.97 
       0.116806         2746.02          2689.4 
       0.122832         2625.87         2570.99 
       0.129052         2453.09         2448.43 
       0.135211         2326.31          2305.9 
       0.141259         2207.36          2142.3 
       0.147318         2062.51         1966.04 
       0.153489         1878.01          1791.9 
       0.159709         1758.39         1638.77 
       0.165845         1680.33         1518.83 
       0.171974         1580.75         1430.07 
       0.178125         1510.61         1365.21 
       0.184229         1456.76         1314.12 
        0.19034         1372.11         1265.46 
       0.196428         1346.54         1211.79 
       0.202534         1296.88          1149.9 
       0.208729         1231.38         1080.86 
       0.214876         1167.38         1011.26 
       0.220989         1125.39         946.633 
       0.227147         1070.76         890.363 
        0.23329         1025.71         844.657 
       0.239377         1005.88         808.644 
       0.245482          940.96         779.031 
       0.251667          936.64          752.17 
       0.257832         904.958         725.388 
       0.263955         873.758         696.971 
       0.270079         842.156          666.48 
        0.27624         832.148         634.722 
       0.282372          796.53         603.755 
        0.28843         782.568         575.355 
       0.294538          743.43         549.985 
       0.300721          738.54         527.875 
        0.30691         706.874         508.813 
       0.313033         694.496         492.015 
       0.319153         674.676         476.184 
       0.325316         655.222         460.352 
        0.33145          637.53         444.263 
       0.337538         629.947          427.98 
       0.343633         610.819         411.727 
       0.349808         590.054         395.811 
       0.355968         585.722         380.962 
       0.362074         575.625         367.488 
       0.368217         560.147         355.234 
       0.374374         537.521         344.035 
       0.380519         535.083         333.627 
       0.386598         521.921          323.78 
       0.392688         519.294         314.092 
        0.39888         503.957         304.328 
       0.405048         495.128         294.701 
       0.411186          486.69          285.31 
       0.417313         476.546         276.289 
       0.423458          469.39         267.714 
       0.429607         460.367         259.651 
       0.435692         449.362         252.196 
       0.441815         446.375         245.144 
       0.447964          437.04         238.405 
       0.454126          426.36         231.903 
       0.460267         419.952          225.61 
       0.466387         414.896         219.472 
        0.47254         406.721         213.435 
       0.478662         405.519         207.602 
       0.484765         392.599         201.997 
       0.490885         389.007         196.606 
       0.497035         381.994          191.43 
       0.503198         376.157          186.49 
       0.509342         373.534          181.79 
       0.515458         368.839         177.293 
       0.521598         361.422         172.926 
       0.527764         354.999         168.668 
       0.533884         352.915         164.564 
           0.54         347.615          160.58 
       0.546137         346.432         156.698 
       0.552299         339.385         152.922 
       0.558452         337.046         149.281 
       0.564573         331.762         145.794 
       0.570708         326.055         142.429 
       0.576825         320.015         139.196 
       0.582926         317.821         136.076 
       0.589034         315.145         133.046 
       0.595184         312.169         130.083 
       0.601379         308.129         127.185 
       0.607522           303.1         124.395 
       0.613639         301.547         121.699 
       0.619772         294.396         119.077 
       0.625918         293.421         116.529 
       0.632068         288.965         114.055 
       0.638161         287.562         111.678 
         0.6443         282.776         109.353 
       0.650464         280.248         107.088 
       0.656582           278.5         104.906 
       0.662703          276.65         102.785 
       0.668861         271.456         100.711 
       0.675024         268.658         98.6937 
       0.681124         267.271         96.7516 
       0.687237         264.108         94.8574 
       0.693381         260.181         93.0048 
       0.699536         257.764         91.1984 
       0.705665         256.097         89.4479 
       0.711789         253.185         87.7453 
       0.717957         251.859          86.076 
        0.72409         248.845         84.4602 
       0.730186         246.202         82.8963 
       0.736317         243.553         81.3642 
       0.742472         242.278         79.8658 
       0.748622         240.082         78.4069 
        0.75476         237.848         76.9881 
       0.760888         234.742         75.6069 
       0.767043         234.382         74.2543 
       0.773185         231.527         72.9379 
       0.779291         227.441         71.6611 
       0.785407         227.015         70.4133 
       0.791564         224.663         69.1875 
       0.797719         221.809         67.9918 
       0.803834         220.778         66.8322 
       0.809972         218.996         65.6956 
       0.816124         218.994         64.5833 
       0.822261         215.707         63.4999 
       0.828378         213.904         62.4448 
       0.834502         213.134         61.4129 
       0.840667          209.81         60.3979 
       0.846816          208.27         59.4089 
       0.852925         207.201         58.4485 
       0.859047         205.386         57.5075 
       0.865192         203.498         56.5842 
       0.871341         201.622         55.6808 
       0.877463         199.842         54.8014 
       0.883569         199.024         53.9433 
       0.889708          197.11         53.0994 
       0.895864         194.822         52.2714 
       0.902008         193.892          51.463 
       0.908149         192.944         50.6723 
       0.914301         190.619         49.8971 
       0.920448         189.084         49.1389 
       0.926574         187.822         48.3992 
       0.932687         187.617         47.6765 
       0.938823          185.21          46.966 
       0.944975         183.389         46.2685 
       0.951105          182.49         45.5878 
       0.957225         180.906          44.922 
       0.963368         178.818         44.2674 
       0.969511         178.363         43.6258 
       0.975621          176.56         43.0005 
       0.981748         176.386         42.3859 
       0.987916         174.436         41.7796 
        0.99406         172.705         41.1874 
        1.00019         172.515          40.608 
        1.00632         170.651         40.0404 
        1.01246         169.613         39.4828 
        1.01859         168.827         38.9368 
        1.02471          167.13         38.4019 
        1.03085           165.1         37.8752 
        1.03698         164.617         37.3597 
        1.04314         163.082         36.8516 
        1.04929         162.074         36.3542 
        1.05541         161.304          35.868 
        1.06154         160.031         35.3896 
        1.06769         159.877         34.9192 
        1.07382         158.495          34.459 
        1.07993          156.98         34.0081 
        1.08607         155.991         33.5635 
        1.09222          155.16         33.1265 
        1.09836         153.736         32.6977 
        1.10449         152.185         32.2771 
        1.11063         150.959         31.8635 
        1.11677         150.718         31.4573 
         1.1229         149.115         31.0589 
        1.12903         148.253         30.6671 
        1.13518          147.67         30.2818 
        1.14131          146.48         29.9034 
        1.14745         145.656         29.5317 
        1.15359         144.708         29.1662 
        1.15973          144.14         28.8069 
        1.16584          142.39         28.4552 
        1.17197         141.667         28.1089 
        1.17811         140.847         27.7674 
        1.18424         139.914         27.4325 
        1.19038         139.566         27.1023 
        1.19652         138.378         26.7776 
        1.20267         137.604         26.4583 
        1.20881         136.547         26.1442 
        1.21495         135.697         25.8358 
        1.22108         134.836         25.5324 
         1.2272         133.756         25.2346 
        1.23334         132.966          24.941 
        1.23949          132.04         24.6513 
        1.24562         131.285          24.367 
        1.25174          129.83         24.0877 
        1.25789         129.442         23.8119 
        1.26402         128.531          23.541 
        1.27014         127.418         23.2749 
        1.27628         126.998         23.0122 
        1.28244          126.49         22.7531 
        1.28858         125.738         22.4983 
        1.29471         124.275         22.2481 
        1.30084         124.033         22.0018 
        1.30697         123.046          21.759 
        1.31312         122.558         21.5195 
        1.31925         121.531         21.2844 
        1.32537         120.923          21.053 
        1.33151         119.726         20.8242 
        1.33765         119.382          20.599 
        1.34378         118.708         20.3776 
        1.34992         118.101         20.1593 
        1.35606         117.331         19.9437 
         1.3622         116.394         19.7317 
        1.36833         115.711         19.5233 
        1.37445         114.966          19.318 
        1.38059         114.425          19.115 
        1.38675         113.597         18.9144 
        1.39288         113.072         18.7176 
        1.39901         112.632         18.5237 
        1.40515         111.858          18.332 
         1.4113         110.804         18.1432 
        1.41742         110.417         17.9578 
        1.42355         109.604         17.7746 
         1.4297         109.114         17.5934 
        1.43585         108.207         17.4149 
        1.44198         107.705         17.2395 
        1.44809         107.032         17.0669 
        1.45423         106.386          16.896 
        1.46036         105.941         16.7277 
        1.46649         105.245         16.5617 
        1.47263         104.788         16.3979 
        1.47877          104.23         16.2363 
        1.48491         103.241         16.0766 
        1.49104         102.771         15.9195 
        1.49718         101.977         15.7643 
        1.50333         101.516          15.611 
        1.50947         101.119           15.46 
         1.5156         100.425         15.3112 
        1.52172         99.7758         15.1644 
        1.52787         99.4773         15.0193 
          1.534          98.703         14.8762 
        1.54013         97.9231         14.7351 
        1.54627         97.6358         14.5956 
        1.55241          97.035         14.4579 
        1.55855         96.3682         14.3222 
        1.56467         96.0616         14.1886 
         1.5708         95.3921         14.0563 
        1.57695         95.1598         13.9256 
        1.58308         94.2112         13.7968 
        1.58922         94.0901         13.6695 
        1.59535         93.4597         13.5439 
         1.6015         92.8258         13.4197 
        1.60764         92.3287         13.2971 
        1.61376         92.0582         13.1765 
        1.61989         91.2079         13.0572 
        1.62604         90.8834         12.9391 
        1.63218         90.4331         12.8226 
        1.63831          89.675         12.7077 
        1.64444         89.2325         12.5943 
        1.65059         88.8643         12.4819 
        1.65673         88.1199         12.3711 
        1.66285         87.9018         12.2619 
        1.66898         87.2908          12.154 
        1.67512         86.9768         12.0472 
        1.68127         86.3184         11.9416 
         1.6874          85.799         11.8375 
        1.69353          85.375         11.7347 
        1.69967         84.7039         11.6328 
        1.70581         84.6338         11.5323 
        1.71193         84.2039         11.4333 
        1.71806         83.4603         11.3352 
        1.72421         83.1883         11.2381 
        1.73035         82.4835         11.1423 
        1.73649         82.1699         11.0476 
        1.74262          81.634          10.954 
        1.74876         81.4232         10.8615 
        1.75489         80.5434         10.7703 
        1.76101         80.3573         10.6801 
        1.76715          79.827         10.5909 
        1.77329         79.5318         10.5025 
        1.77943         79.0586         10.4152 
        1.78557         78.7399         10.3289 
        1.79171         78.0644         10.2437 
        1.79785         77.8261         10.1593 
        1.80399          77.431          10.076 
        1.81012         76.9348         9.99367 
        1.81625         76.4896         9.91232 
        1.82239          76.242         9.83176 
        1.82853         75.8611         9.75214 
        1.83466         75.3843         9.67347 
        1.84078         75.1152         9.59576 
        1.84692         74.5264         9.51879 
        1.85306         74.0246         9.44256 
         1.8592         73.7008         9.36729 
        1.86533         73.3926         9.29288 
        1.87147         72.7591          9.2192 
        1.87761         72.5383         9.14629 
        1.88375         72.1748         9.07425 
        1.88988          71.861         9.00306 
        1.89601         71.4005          8.9326 
        1.90215         71.0315         8.86284 
        1.90829         70.6554         8.79386 
        1.91442         70.2311         8.72561 
        1.92056         69.8215         8.65814 
         1.9267         69.5957         8.59132 
        1.93284         69.0775         8.52516 
        1.93897         68.5904         8.45983 
        1.94509         68.3568         8.39532 
        1.95123         68.0638         8.33132 
        1.95737          67.734         8.26795 
        1.96349         67.2245         8.20539 
        1.96964         66.9024         8.14331 
        1.97578         66.5581         8.08184 
        1.98192         66.3627         8.02114 
        1.98805         65.9625         7.96105 
        1.99419         65.5039         7.90157 
        2.00033         65.2347         7.84268 
        2.00647         65.0334          7.7844 
         2.0126         64.3789         7.72682 
        2.01874         64.0622         7.66973 
        2.02488         63.7633         7.61317 
        2.03101         63.5921         7.55728 
        2.03714         63.1116         7.50201 
        2.04328         62.7763         7.44723 
        2.04941         62.4173         7.39305 
        2.05554         62.1478         7.33944 
        2.06167         61.8072          7.2863 
        2.06781         61.4774         7.23367 
        2.07396         61.1873         7.18149 
        2.08009         60.8732         7.12992 
        2.08622         60.5396         7.07891 
        2.09237         60.1595          7.0283 
        2.09851          60.013         6.97818 
        2.10464         59.5947         6.92863 
        2.11077          59.244         6.87963 
        2.11691         59.0142         6.83099 
        2.12305         58.6571         6.78281 
        2.12918         58.3508         6.73522 
        2.13531         57.9694         6.68808 
        2.14145         57.8031         6.64128 
         2.1476         57.5416         6.59488 
        2.15372         57.2473         6.54915 
        2.15985         56.8712         6.50381 
        2.16599         56.5633         6.45877 
        2.17213         56.3298          6.4142 
        2.17827          55.922         6.37007 
         2.1844         55.6212         6.32639 
        2.19054         55.4877          6.2831 
        2.19666         55.1396         6.24029 
         2.2028         54.9634         6.19783 
        2.20893         54.6315         6.15575 
        2.21508         54.2508         6.11401 
        2.22122         54.0293         6.07265 
        2.22736         53.8663         6.03176 
        2.23349          53.438         5.99125 
        2.23962         53.2194          5.9511 
        2.24577         52.9508         5.91128 
         2.2519         52.6783         5.87187 
        2.25802         52.4051          5.8329 
        2.26417         52.1016         5.79416 
        2.27031         51.8779         5.75575 
        2.27644         51.7849         5.71779 
        2.28257         51.3737         5.68019 
        2.28872         51.1106         5.64284 
        2.29486           50.84         5.60585 
        2.30099         50.6577         5.56926 
        2.30712         50.3616         5.53298 
        2.31326         50.1239         5.49696 
         2.3194         49.8781         5.46129 
        2.32553         49.4867         5.42599 
        2.33166         49.3094         5.39102 
         2.3378         49.0693         5.35632 
        2.34394         48.8348          5.3219 
        2.35007         48.4871         5.28784 
        2.35619         48.4282         5.25412 
        2.36233         48.1654         5.22061 
        2.36848         47.8576         5.18732 
        2.37462         47.6922          5.1544 
        2.38075         47.4948         5.12179 
        2.38689         47.1809         5.08944 
        2.39303          47.012         5.05738 
        2.39916          46.815         5.02562 
        2.40529         46.5342         4.99413 
        2.41143         46.2799          4.9629 
        2.41757         46.0534         4.93192 
         2.4237         45.9041         4.90125 
        2.42983         45.6382         4.87086 
        2.43598         45.3996         4.84064 
        2.44211         45.2455         4.81072 
        2.44823         44.8491         4.78113 
        2.45437         44.7717          4.7517 
        2.46052         44.4958          4.7225 
        2.46665         44.3799          4.6936 
        2.47279         44.1625         4.66494 
        2.47892         43.9732         4.63651 
        2.48507         43.6894         4.60829 
         2.4912         43.5936         4.58035 
