# k  (h/Mpc)    P(k)  (Mpc/h)^3    P_linear(k)  (Mpc/h)^3
     0.00783031         11929.3         11948.6 
       0.013688         14812.4         14678.8 
       0.019231         14835.2         14784.2 
      0.0249154         13425.5         13588.8 
      0.0312784         11641.1         11693.3 
      0.0375637         9935.89         9913.73 
      0.0433917         8507.74         8617.84 
      0.0492413         7682.38         7693.22 
      0.0555754         6836.51         7017.62 
      0.0619321         6554.03         6520.75 
       0.067871            5948         6088.22 
      0.0738098         5485.68         5610.55 
      0.0800417         4896.42         5047.64 
      0.0862327         4402.29         4467.23 
      0.0921407         3959.64         3951.94 
      0.0982031         3503.45         3510.12 
       0.104506         3266.07         3165.83 
       0.110769          3027.5         2930.64 
       0.116806         2846.04         2775.26 
       0.122832         2720.55         2653.07 
       0.129052         2540.59          2526.6 
       0.135211         2409.59         2379.52 
       0.141259         2287.55          2210.7 
       0.147318         2138.41         2028.81 
       0.153489         1947.35         1849.12 
       0.159709         1824.32          1691.1 
       0.165845         1744.49         1567.32 
       0.171974         1641.95         1475.74 
       0.178125         1568.65          1408.8 
       0.184229         1512.27         1356.08 
        0.19034         1425.07         1305.87 
       0.196428         1398.38         1250.48 
       0.202534         1346.56         1186.62 
       0.208729         1279.31         1115.38 
       0.214876         1213.98         1043.55 
       0.220989         1170.59         976.857 
       0.227147         1114.69         918.792 
        0.23329         1067.91         871.628 
       0.239377         1047.74         834.465 
       0.245482         980.312         803.906 
       0.251667         976.056         776.189 
       0.257832         942.666          748.55 
       0.263955         910.311         719.225 
       0.270079         877.513         687.762 
        0.27624         867.311         654.988 
       0.282372         830.237         623.032 
        0.28843         816.838         593.725 
       0.294538         775.824         567.546 
       0.300721         770.913         544.731 
        0.30691         738.232         525.058 
       0.313033         725.296         507.725 
       0.319153         705.284          491.39 
       0.325316         684.739         475.052 
        0.33145         666.638         458.447 
       0.337538         658.496         441.645 
       0.343633         638.939         424.873 
       0.349808         617.137         408.447 
       0.355968           612.8         393.126 
       0.362074         602.778         379.221 
       0.368217         586.354         366.577 
       0.374374         562.625         355.019 
       0.380519         560.526          344.28 
       0.386598         546.601         334.118 
       0.392688         544.119         324.121 
        0.39888         527.914         314.045 
       0.405048         518.983          304.11 
       0.411186         510.407          294.42 
       0.417313          499.64          285.11 
       0.423458         492.142         276.262 
       0.429607         482.955         267.941 
       0.435692         471.593         260.248 
       0.441815         468.424         252.971 
       0.447964         458.543         246.017 
       0.454126         448.189         239.307 
       0.460267         441.048         232.813 
       0.466387         435.779          226.48 
        0.47254         427.524          220.25 
       0.478662         426.151         214.231 
       0.484765         412.571         208.447 
       0.490885         408.987         202.884 
       0.497035         401.388         197.542 
       0.503198         395.771         192.445 
       0.509342         392.957         187.594 
       0.515458         388.242         182.954 
       0.521598         380.143         178.447 
       0.527764         373.329         174.053 
       0.533884         371.388         169.818 
           0.54         365.838         165.707 
       0.546137         364.588         161.701 
       0.552299         357.289         157.804 
       0.558452          354.98         154.048 
       0.564573         349.481         150.448 
       0.570708          343.63         146.977 
       0.576825         336.835          143.64 
       0.582926         334.912         140.421 
       0.589034         332.176         137.295 
       0.595184         329.088         134.237 
       0.601379         324.698         131.246 
       0.607522         319.494         128.367 
       0.613639         318.021         125.585 
       0.619772         310.384         122.879 
       0.625918         309.475         120.249 
       0.632068         304.745         117.697 
       0.638161         303.287         115.243 
         0.6443         298.182         112.844 
       0.650464         295.579         110.507 
       0.656582         293.795         108.255 
       0.662703         292.001         106.066 
       0.668861         286.518         103.927 
       0.675024         283.617         101.845 
       0.681124         282.047         99.8406 
       0.687237         278.891          97.886 
       0.693381          274.79         95.9742 
       0.699536          272.03         94.1101 
       0.705665         270.225         92.3038 
       0.711789         267.483         90.5468 
       0.717957         265.927         88.8242 
        0.72409         262.875         87.1568 
       0.730186         260.113          85.543 
       0.736317         257.287          83.962 
       0.742472         255.962         82.4157 
       0.748622         253.609         80.9103 
        0.75476         251.148         79.4461 
       0.760888         247.928         78.0208 
       0.767043         247.676         76.6251 
       0.773185         244.601         75.2666 
       0.779291         240.348         73.9491 
       0.785407         239.954         72.6614 
       0.791564         237.311         71.3965 
       0.797719         234.511         70.1626 
       0.803834         233.318         68.9659 
       0.809972         231.512         67.7931 
       0.816124         231.534         66.6452 
       0.822261         228.045         65.5272 
       0.828378         226.186         64.4385 
       0.834502         225.188         63.3737 
       0.840667         221.822         62.3263 
       0.846816         220.249         61.3057 
       0.852925         219.096         60.3146 
       0.859047         217.232         59.3435 
       0.865192         215.138         58.3908 
       0.871341         213.222         57.4585 
       0.877463         211.357          56.551 
       0.883569         210.533         55.6656 
       0.889708         208.455         54.7947 
       0.895864         206.077         53.9403 
       0.902008         205.077         53.1061 
       0.908149         204.012         52.2901 
       0.914301         201.531         51.4901 
       0.920448         199.925         50.7077 
       0.926574         198.494         49.9445 
       0.932687         198.391         49.1987 
       0.938823         195.834         48.4655 
       0.944975         194.034         47.7457 
       0.951105         193.003         47.0433 
       0.957225         191.466         46.3562 
       0.963368         189.193         45.6807 
       0.969511         188.618         45.0186 
       0.975621         186.582         44.3734 
       0.981748         186.597         43.7392 
       0.987916          184.52         43.1135 
        0.99406         182.561         42.5024 
        1.00019         182.432         41.9045 
        1.00632         180.509         41.3187 
        1.01246         179.325         40.7433 
        1.01859         178.694         40.1799 
        1.02471         176.692         39.6279 
        1.03085         174.586         39.0845 
        1.03698          174.15         38.5524 
        1.04314          172.42         38.0281 
        1.04929         171.414         37.5148 
        1.05541         170.714         37.0131 
        1.06154         169.156         36.5194 
        1.06769         169.004         36.0341 
        1.07382         167.584         35.5591 
        1.07993         165.976         35.0939 
        1.08607         165.021         34.6351 
        1.09222         164.125         34.1841 
        1.09836         162.618         33.7416 
        1.10449         160.881         33.3076 
        1.11063         159.505         32.8808 
        1.11677         159.308         32.4616 
         1.1229         157.729         32.0505 
        1.12903         156.763         31.6462 
        1.13518         156.037         31.2486 
        1.14131         154.783         30.8581 
        1.14745         154.021         30.4745 
        1.15359          152.97         30.0974 
        1.15973         152.343         29.7265 
        1.16584         150.482         29.3637 
        1.17197         149.778         29.0063 
        1.17811         148.827         28.6539 
        1.18424         147.875         28.3084 
        1.19038         147.517         27.9675 
        1.19652         146.169         27.6325 
        1.20267         145.444          27.303 
        1.20881          144.32         26.9789 
        1.21495         143.406         26.6606 
        1.22108         142.487         26.3476 
         1.2272         141.337         26.0403 
        1.23334         140.494         25.7372 
        1.23949         139.602         25.4383 
        1.24562         138.717         25.1449 
        1.25174         137.152         24.8567 
        1.25789         136.692         24.5721 
        1.26402         135.734         24.2925 
        1.27014         134.544          24.018 
        1.27628         134.135         23.7469 
        1.28244         133.628         23.4795 
        1.28858         132.727         23.2166 
        1.29471         131.181         22.9583 
        1.30084         130.972         22.7043 
        1.30697         129.881         22.4537 
        1.31312         129.301         22.2065 
        1.31925         128.331         21.9639 
        1.32537         127.595         21.7251 
        1.33151         126.358          21.489 
        1.33765         125.986         21.2567 
        1.34378         125.277         21.0282 
        1.34992         124.599         20.8029 
        1.35606         123.856         20.5804 
         1.3622         122.835         20.3616 
        1.36833          122.01         20.1465 
        1.37445         121.267         19.9347 
        1.38059         120.625         19.7252 
        1.38675         119.861         19.5183 
        1.39288         119.271         19.3152 
        1.39901          118.81          19.115 
        1.40515         117.958         18.9173 
         1.4113          116.83         18.7224 
        1.41742         116.321         18.5311 
        1.42355         115.513         18.3421 
         1.4297         114.976         18.1551 
        1.43585         114.058         17.9708 
        1.44198         113.498         17.7899 
        1.44809          112.81         17.6117 
        1.45423         112.117         17.4354 
        1.46036         111.607         17.2618 
        1.46649         110.818         17.0905 
        1.47263         110.352         16.9214 
        1.47877         109.732         16.7546 
        1.48491         108.691         16.5899 
        1.49104         108.212         16.4277 
        1.49718         107.321         16.2676 
        1.50333         106.856         16.1094 
        1.50947         106.441         15.9535 
         1.5156         105.687            15.8 
        1.52172          104.96         15.6486 
        1.52787         104.606         15.4988 
          1.534         103.842         15.3511 
        1.54013         102.997         15.2055 
        1.54627         102.681         15.0616 
        1.55241          101.97         14.9195 
        1.55855         101.236         14.7794 
        1.56467         100.983         14.6416 
         1.5708         100.276         14.5051 
        1.57695         99.8995         14.3701 
        1.58308         99.0694         14.2372 
        1.58922         98.8516         14.1059 
        1.59535         98.1252         13.9763 
         1.6015         97.5202         13.8481 
        1.60764         96.9468         13.7216 
        1.61376         96.6812         13.5971 
        1.61989         95.7623          13.474 
        1.62604         95.4476         13.3522 
        1.63218         94.9356         13.2319 
        1.63831         94.1509         13.1134 
        1.64444         93.6942         12.9963 
        1.65059         93.2761         12.8804 
        1.65673         92.4722          12.766 
        1.66285         92.2221         12.6534 
        1.66898         91.6457          12.542 
        1.67512         91.2675         12.4318 
        1.68127          90.571         12.3228 
         1.6874         89.9452         12.2154 
        1.69353         89.5316         12.1093 
        1.69967         88.8668         12.0042 
        1.70581         88.7403         11.9004 
        1.71193          88.265         11.7982 
        1.71806         87.5005         11.6971 
        1.72421         87.1464         11.5969 
        1.73035         86.4779          11.498 
        1.73649         86.0721         11.4002 
        1.74262         85.5361         11.3037 
        1.74876         85.2762         11.2083 
        1.75489         84.3635         11.1141 
        1.76101         84.1257         11.0211 
        1.76715         83.5865          10.929 
        1.77329         83.2831         10.8378 
        1.77943         82.6847         10.7477 
        1.78557          82.382         10.6587 
        1.79171          81.668         10.5707 
        1.79785          81.443         10.4837 
        1.80399          80.947         10.3976 
        1.81012         80.4332         10.3127 
        1.81625         79.9802         10.2288 
        1.82239         79.7019         10.1456 
        1.82853         79.2908         10.0635 
        1.83466         78.7656         9.98228 
        1.84078         78.4901         9.90209 
        1.84692         77.8979         9.82265 
        1.85306         77.3326         9.74399 
         1.8592         77.0564         9.66632 
        1.86533         76.6676         9.58954 
        1.87147         76.0346          9.5135 
        1.87761         75.7728         9.43826 
        1.88375         75.3491         9.36392 
        1.88988         75.0008         9.29047 
        1.89601         74.5127         9.21776 
        1.90215         74.1272         9.14577 
        1.90829         73.7155         9.07458 
        1.91442         73.3051         9.00415 
        1.92056         72.8364         8.93453 
         1.9267         72.6026         8.86557 
        1.93284         72.0609          8.7973 
        1.93897         71.5509         8.72989 
        1.94509         71.3391         8.66332 
        1.95123         70.9605         8.59728 
        1.95737         70.6021         8.53188 
        1.96349         70.0762         8.46733 
        1.96964         69.7429         8.40327 
        1.97578         69.3425         8.33984 
        1.98192         69.1718         8.27719 
        1.98805         68.6733         8.21518 
        1.99419         68.2475         8.15381 
        2.00033         67.9551         8.09303 
        2.00647         67.6928          8.0329 
         2.0126          67.071         7.97347 
        2.01874         66.6453         7.91456 
        2.02488         66.3323         7.85619 
        2.03101         66.1445         7.79853 
        2.03714          65.686         7.74149 
        2.04328         65.2843         7.68497 
        2.04941         64.9503         7.62905 
        2.05554         64.6701         7.57373 
        2.06167         64.2699         7.51889 
        2.06781         63.8876         7.46459 
        2.07396         63.6033         7.41074 
        2.08009         63.2775         7.35752 
        2.08622         62.8794         7.30488 
        2.09237         62.4882         7.25266 
        2.09851         62.3447         7.20094 
        2.10464         61.8952         7.14981 
        2.11077           61.53         7.09924 
        2.11691         61.3229         7.04904 
        2.12305         60.8997         6.99933 
        2.12918         60.5708         6.95022 
        2.13531         60.2132         6.90157 
        2.14145          60.001         6.85328 
         2.1476         59.6944         6.80539 
        2.15372         59.3754         6.75821 
        2.15985         58.9981         6.71142 
        2.16599         58.6825         6.66494 
        2.17213         58.4109         6.61895 
        2.17827          57.977         6.57341 
         2.1844         57.6673         6.52833 
        2.19054         57.5428         6.48367 
        2.19666         57.1726         6.43949 
         2.2028         56.9979         6.39567 
        2.20893          56.613         6.35225 
        2.21508         56.2233         6.30918 
        2.22122         56.0028          6.2665 
        2.22736         55.7988          6.2243 
        2.23349         55.3407          6.1825 
        2.23962         55.1124         6.14106 
        2.24577         54.8249         6.09997 
         2.2519         54.5647         6.05931 
        2.25802          54.247         6.01909 
        2.26417          53.898         5.97912 
        2.27031         53.6776         5.93948 
        2.27644         53.5622         5.90031 
        2.28257          53.157          5.8615 
        2.28872         52.8799         5.82297 
        2.29486          52.549         5.78479 
        2.30099          52.351         5.74703 
        2.30712         52.0818          5.7096 
        2.31326         51.8426         5.67243 
         2.3194          51.583         5.63562 
        2.32553         51.1953         5.59919 
        2.33166         50.9686         5.56311 
         2.3378          50.717         5.52729 
        2.34394          50.484         5.49178 
        2.35007          50.129         5.45663 
        2.35619         50.0254         5.42183 
        2.36233         49.7321         5.38725 
        2.36848         49.4386         5.35291 
        2.37462         49.2311         5.31893 
        2.38075         49.0786         5.28528 
        2.38689           48.72          5.2519 
        2.39303         48.5256         5.21881 
        2.39916         48.3072         5.18603 
        2.40529         48.0291         5.15355 
        2.41143           47.78         5.12131 
        2.41757         47.5364         5.08934 
         2.4237         47.3802          5.0577 
        2.42983         47.0969         5.02633 
        2.43598         46.8387         4.99515 
        2.44211         46.6756         4.96428 
        2.44823          46.256         4.93374 
        2.45437         46.1425         4.90338 
        2.46052         45.8928         4.87324 
        2.46665         45.7539         4.84341 
        2.47279         45.4995         4.81385 
        2.47892         45.3075         4.78451 
        2.48507         45.0328         4.75538 
         2.4912         44.9052         4.72656 
