# k  (h/Mpc)    Pcb(k)  (Mpc/h)^3    Pcb_linear(k)  (Mpc/h)^3
     0.00783031         19045.6           19220 
       0.013688         23767.3         23614.9 
       0.019231         23734.5         23777.9 
      0.0249154         21354.4         21851.2 
      0.0312784           18535         18800.1 
      0.0375637           15856         15937.2 
      0.0433917         13512.1         13852.9 
      0.0492413         12229.8         12365.9 
      0.0555754         10811.1         11279.5 
      0.0619321         10428.1         10480.5 
       0.067871         9398.82         9785.04 
      0.0738098         8673.31         9017.15 
      0.0800417         7721.12          8112.3 
      0.0862327         6971.63          7179.4 
      0.0921407         6315.46          6351.2 
      0.0982031          5599.7         5641.09 
       0.104506         5257.18         5087.75 
       0.110769         4875.94         4709.74 
       0.116806         4599.98         4460.02 
       0.122832         4377.74         4263.63 
       0.129052         4073.13         4060.38 
       0.135211         3865.22            3824 
       0.141259         3693.34         3552.68 
       0.147318         3473.31         3260.37 
       0.153489         3169.93         2971.59 
       0.159709         2985.29         2717.64 
       0.165845         2880.18         2518.73 
       0.171974         2725.79         2371.54 
       0.178125         2598.17         2263.97 
       0.184229         2491.07         2179.25 
        0.19034         2373.08         2098.56 
       0.196428         2320.21         2009.55 
       0.202534         2226.41         1906.91 
       0.208729         2131.47         1792.42 
       0.214876         2047.68            1677 
       0.220989         1977.86         1569.82 
       0.227147         1901.18         1476.51 
        0.23329         1824.43         1400.71 
       0.239377         1799.36         1340.99 
       0.245482         1692.14         1291.88 
       0.251667         1687.05         1247.34 
       0.257832         1625.06         1202.92 
       0.263955         1569.98          1155.8 
       0.270079         1517.78         1105.23 
        0.27624         1499.16         1052.57 
       0.282372         1438.81         1001.22 
        0.28843         1435.98         954.119 
       0.294538         1366.86         912.047 
       0.300721         1355.88         875.382 
        0.30691         1310.25         843.771 
       0.313033         1284.47         815.915 
       0.319153         1263.92         789.662 
       0.325316         1224.55         763.407 
        0.33145         1199.17         736.726 
       0.337538         1177.13         709.724 
       0.343633         1154.49         682.771 
       0.349808         1117.38         656.377 
       0.355968          1108.3         631.754 
       0.362074         1099.55         609.408 
       0.368217         1064.24         589.089 
       0.374374         1028.87         570.516 
       0.380519         1030.47         553.257 
       0.386598         1000.96         536.928 
       0.392688         996.982         520.861 
        0.39888         968.807         504.669 
       0.405048          960.25         488.705 
       0.411186         947.001         473.132 
       0.417313         925.338         458.173 
       0.423458         910.606         443.952 
       0.429607         899.853         430.582 
       0.435692          883.13         418.218 
       0.441815         875.637         406.525 
       0.447964         857.271         395.349 
       0.454126         852.653         384.566 
       0.460267         830.518          374.13 
       0.466387         819.585         363.952 
        0.47254         818.243         353.941 
       0.478662         806.425         344.268 
       0.484765         785.226         334.973 
       0.490885         780.512         326.034 
       0.497035         763.592          317.45 
       0.503198         759.605         309.258 
       0.509342         750.821         301.463 
       0.515458         747.344         294.006 
       0.521598         728.955         286.763 
       0.527764         716.378         279.703 
       0.533884          714.07         272.897 
           0.54         707.766          266.29 
       0.546137         699.362         259.853 
       0.552299         692.364         253.591 
       0.558452         685.273         247.554 
       0.564573         677.588          241.77 
       0.570708         669.199         236.192 
       0.576825         652.434         230.829 
       0.582926         654.987         225.656 
       0.589034         648.566         220.632 
       0.595184         642.697         215.718 
       0.601379         634.369         210.911 
       0.607522         624.017         206.285 
       0.613639          623.71         201.814 
       0.619772         610.881         197.466 
       0.625918         606.885          193.24 
       0.632068         599.249         189.139 
       0.638161         596.154         185.195 
         0.6443         586.667          181.34 
       0.650464         584.649         177.585 
       0.656582         578.737         173.965 
       0.662703         576.688         170.448 
       0.668861         567.374          167.01 
       0.675024         562.202         163.664 
       0.681124         558.145         160.444 
       0.687237         554.119         157.302 
       0.693381         547.276          154.23 
       0.699536         536.693         151.235 
       0.705665         536.156         148.332 
       0.711789         533.507         145.508 
       0.717957         528.252          142.74 
        0.72409         525.402         140.061 
       0.730186         517.447         137.467 
       0.736317         513.756         134.927 
       0.742472         511.105         132.442 
       0.748622         505.331         130.023 
        0.75476         497.462          127.67 
       0.760888         493.687         125.379 
       0.767043         492.415         123.136 
       0.773185         487.657         120.953 
       0.779291          482.57         118.836 
       0.785407         478.745         116.767 
       0.791564          473.73         114.734 
       0.797719          472.12         112.751 
       0.803834         466.086         110.828 
       0.809972         463.589         108.943 
       0.816124         462.407         107.099 
       0.822261         455.916         105.302 
       0.828378         453.849         103.552 
       0.834502         448.236         101.841 
       0.840667         443.923         100.158 
       0.846816         441.973         98.5181 
       0.852925         438.492         96.9254 
       0.859047         435.944         95.3648 
       0.865192         430.558         93.8338 
       0.871341         426.917         92.3357 
       0.877463         425.719         90.8773 
       0.883569         421.282         89.4544 
       0.889708         418.976         88.0549 
       0.895864          417.66         86.6819 
       0.902008         413.226         85.3413 
       0.908149         407.213         84.0301 
       0.914301         405.179         82.7445 
       0.920448         403.308         81.4872 
       0.926574         396.352         80.2606 
       0.932687         395.578         79.0621 
       0.938823         392.464         77.8839 
       0.944975         390.855         76.7273 
       0.951105         386.604         75.5984 
       0.957225         383.995         74.4943 
       0.963368         379.653         73.4087 
       0.969511         378.458         72.3448 
       0.975621         375.486         71.3079 
       0.981748         373.183         70.2887 
       0.987916         371.144         69.2832 
        0.99406         364.783         68.3013 
        1.00019         362.906         67.3404 
        1.00632         360.935         66.3991 
        1.01246          357.93         65.4744 
        1.01859         357.425          64.569 
        1.02471          352.12          63.682 
        1.03085         351.189         62.8086 
        1.03698         348.515         61.9537 
        1.04314         345.198         61.1111 
        1.04929         341.237         60.2862 
        1.05541         342.028           59.48 
        1.06154         336.255         58.6867 
        1.06769         334.761         57.9066 
        1.07382         331.985         57.1435 
        1.07993         330.079         56.3958 
        1.08607         328.508         55.6585 
        1.09222         325.252         54.9337 
        1.09836         322.786         54.2227 
        1.10449         320.608         53.5252 
        1.11063         316.095         52.8393 
        1.11677         316.611         52.1657 
         1.1229         313.725         51.5051 
        1.12903         310.917         50.8554 
        1.13518         308.015         50.2164 
        1.14131         306.202         49.5889 
        1.14745         304.092         48.9724 
        1.15359         302.067         48.3664 
        1.15973         300.697         47.7705 
        1.16584         297.287         47.1873 
        1.17197          297.08         46.6131 
        1.17811         293.138         46.0467 
        1.18424         291.055         45.4915 
        1.19038         289.924         44.9438 
        1.19652         287.036         44.4054 
        1.20267         285.838         43.8758 
        1.20881          283.61         43.3551 
        1.21495         281.071         42.8436 
        1.22108         279.117         42.3405 
         1.2272         277.189         41.8467 
        1.23334         275.583         41.3597 
        1.23949         272.783         40.8793 
        1.24562         271.599         40.4079 
        1.25174         269.559         39.9447 
        1.25789         266.979         39.4874 
        1.26402         265.213         39.0381 
        1.27014         263.216         38.5969 
        1.27628         261.202         38.1613 
        1.28244         261.259         37.7316 
        1.28858         258.212         37.3091 
        1.29471         256.854          36.894 
        1.30084         253.892         36.4857 
        1.30697         252.987          36.083 
        1.31312          250.19         35.6858 
        1.31925         248.791         35.2959 
        1.32537         247.795         34.9122 
        1.33151          245.65         34.5329 
        1.33765          242.89         34.1594 
        1.34378         241.928         33.7922 
        1.34992         240.633         33.4302 
        1.35606          239.15         33.0727 
         1.3622         237.095         32.7211 
        1.36833         235.394         32.3755 
        1.37445         233.688          32.035 
        1.38059         231.711         31.6984 
        1.38675         230.258         31.3659 
        1.39288         228.877         31.0395 
        1.39901         227.614         30.7178 
        1.40515         225.938         30.4001 
         1.4113         224.339         30.0869 
        1.41742         222.422         29.7794 
        1.42355         220.833         29.4757 
         1.4297         219.461         29.1752 
        1.43585         217.951         28.8791 
        1.44198         217.164         28.5883 
        1.44809         214.703          28.302 
        1.45423         213.465         28.0186 
        1.46036         212.263         27.7396 
        1.46649         210.475         27.4643 
        1.47263          209.34         27.1926 
        1.47877         207.346         26.9247 
        1.48491          205.52         26.6599 
        1.49104         204.409         26.3993 
        1.49718         202.846          26.142 
        1.50333          202.11         25.8877 
        1.50947         200.553         25.6373 
         1.5156         198.702         25.3907 
        1.52172          197.59         25.1472 
        1.52787         195.823         24.9065 
          1.534         195.329         24.6692 
        1.54013         193.452         24.4353 
        1.54627          192.41          24.204 
        1.55241         190.704         23.9756 
        1.55855         188.874         23.7506 
        1.56467          188.27          23.529 
         1.5708         187.052         23.3097 
        1.57695         185.644         23.0928 
        1.58308         183.971         22.8792 
        1.58922          182.59         22.6682 
        1.59535         181.311         22.4599 
         1.6015         180.783          22.254 
        1.60764         179.046         22.0507 
        1.61376         178.511         21.8505 
        1.61989         176.894         21.6527 
        1.62604         175.032         21.4569 
        1.63218         174.747         21.2637 
        1.63831         173.156         21.0733 
        1.64444          171.89         20.8851 
        1.65059         170.932         20.6988 
        1.65673         169.686          20.515 
        1.66285          168.23          20.334 
        1.66898         167.376          20.155 
        1.67512          166.38         19.9779 
        1.68127         164.464         19.8028 
         1.6874          163.75         19.6301 
        1.69353         162.731         19.4596 
        1.69967         161.301         19.2908 
        1.70581          160.47          19.124 
        1.71193         159.362         18.9598 
        1.71806         158.415         18.7972 
        1.72421         157.054         18.6362 
        1.73035          156.28         18.4772 
        1.73649         155.289         18.3202 
        1.74262         154.115         18.1651 
        1.74876         152.922         18.0117 
        1.75489          151.92         17.8604 
        1.76101           150.4         17.7109 
        1.76715         149.804         17.5629 
        1.77329         148.656         17.4164 
        1.77943         147.982         17.2715 
        1.78557         146.809         17.1285 
        1.79171         145.995         16.9871 
        1.79785         144.596         16.8472 
        1.80399          143.71          16.709 
        1.81012         142.859         16.5725 
        1.81625         142.093         16.4376 
        1.82239         140.943          16.304 
        1.82853         140.306          16.172 
        1.83466         139.199         16.0415 
        1.84078         138.642         15.9127 
        1.84692         136.824          15.785 
        1.85306          136.29         15.6586 
         1.8592         135.382         15.5338 
        1.86533         134.699         15.4104 
        1.87147         133.641         15.2882 
        1.87761         132.555         15.1673 
        1.88375         131.644         15.0478 
        1.88988          130.54         14.9298 
        1.89601         130.124          14.813 
        1.90215         129.204         14.6973 
        1.90829          127.99         14.5829 
        1.91442         127.321         14.4697 
        1.92056         126.687         14.3578 
         1.9267         125.609          14.247 
        1.93284          124.69         14.1373 
        1.93897         124.168         14.0289 
        1.94509         123.267          13.922 
        1.95123         122.392         13.8158 
        1.95737         121.593         13.7108 
        1.96349         120.872          13.607 
        1.96964          119.79         13.5041 
        1.97578         119.114         13.4021 
        1.98192          118.28         13.3015 
        1.98805         117.489         13.2018 
        1.99419         116.779         13.1032 
        2.00033         116.121         13.0055 
        2.00647         115.374         12.9089 
         2.0126         114.545         12.8134 
        2.01874         113.915         12.7187 
        2.02488         113.199         12.6249 
        2.03101         112.152         12.5323 
        2.03714         111.535         12.4406 
        2.04328           110.7         12.3498 
        2.04941         110.096         12.2599 
        2.05554         109.127          12.171 
        2.06167         108.642         12.0829 
        2.06781           107.8         11.9956 
        2.07396         107.166         11.9091 
        2.08009         106.444         11.8236 
        2.08622         105.801          11.739 
        2.09237         105.035         11.6551 
        2.09851         104.592         11.5719 
        2.10464         103.899         11.4898 
        2.11077         103.179         11.4085 
        2.11691         102.689         11.3278 
        2.12305         101.842          11.248 
        2.12918         101.227          11.169 
        2.13531         100.529         11.0909 
        2.14145         99.8532         11.0133 
         2.1476         99.0903         10.9363 
        2.15372         98.7072         10.8605 
        2.15985         98.1756         10.7853 
        2.16599         97.3464         10.7106 
        2.17213          96.745         10.6367 
        2.17827         96.2142         10.5635 
         2.1844         95.4451         10.4911 
        2.19054         94.9648         10.4193 
        2.19666         94.2395         10.3483 
         2.2028         93.7159         10.2779 
        2.20893         93.3068         10.2081 
        2.21508         92.4289         10.1389 
        2.22122          91.824         10.0703 
        2.22736         91.4223         10.0025 
        2.23349         90.9041         9.93531 
        2.23962         90.2445         9.86872 
        2.24577         89.6983         9.80268 
         2.2519         89.0151         9.73734 
        2.25802         88.5457         9.67271 
        2.26417          88.181         9.60848 
        2.27031         87.4991         9.54477 
        2.27644         86.9505         9.48183 
        2.28257          86.427         9.41946 
        2.28872         85.7594         9.35754 
        2.29486         85.3228         9.29619 
        2.30099          84.818         9.23551 
        2.30712         84.3918         9.17535 
        2.31326         83.7048         9.11563 
         2.3194         83.1636         9.05647 
        2.32553         82.8674         8.99794 
        2.33166         82.1677         8.93995 
         2.3378         81.8113         8.88239 
        2.34394         81.2432         8.82532 
        2.35007         80.7907         8.76884 
        2.35619         80.2483         8.71291 
        2.36233         79.9224         8.65735 
        2.36848         79.3276         8.60215 
        2.37462         79.0148         8.54755 
        2.38075         78.3316         8.49348 
        2.38689         78.0387         8.43983 
        2.39303         77.4496         8.38666 
        2.39916         76.9795         8.33399 
        2.40529         76.7257         8.28179 
        2.41143          76.269         8.22999 
        2.41757         75.7357         8.17861 
         2.4237         75.3725         8.12776 
        2.42983         74.8983         8.07735 
        2.43598           74.41         8.02724 
        2.44211         74.0419         7.97763 
        2.44823         73.5891         7.92856 
        2.45437         73.2599         7.87976 
        2.46052         72.7002         7.83134 
        2.46665         72.5166          7.7834 
        2.47279         71.8723         7.73589 
        2.47892         71.5468         7.68874 
        2.48507         71.1757         7.64193 
         2.4912          70.755         7.59561 
