# k  (h/Mpc)    Pcb(k)  (Mpc/h)^3    Pcb_linear(k)  (Mpc/h)^3
     0.00783031         17330.7         17482.9 
       0.013688         21607.2         21481.5 
       0.019231         21593.7         21630.4 
      0.0249154         19454.9         19878.2 
      0.0312784         16883.5         17102.9 
      0.0375637         14435.8         14498.6 
      0.0433917         12315.4         12602.6 
      0.0492413         11140.9         11249.9 
      0.0555754         9863.46         10261.5 
      0.0619321         9501.48         9534.66 
       0.067871         8576.81         8902.02 
      0.0738098         7913.46         8203.44 
      0.0800417         7048.74         7380.27 
      0.0862327         6358.27         6531.56 
      0.0921407         5750.48          5778.1 
      0.0982031         5095.62         5132.08 
       0.104506         4776.93         4628.67 
       0.110769         4429.68         4284.78 
       0.116806         4175.15         4057.59 
       0.122832         3977.39         3878.92 
       0.129052         3703.19         3694.01 
       0.135211         3514.32         3478.96 
       0.141259         3353.14         3232.13 
       0.147318         3148.96          2966.2 
       0.153489         2872.08         2703.47 
       0.159709         2702.18         2472.44 
       0.165845         2601.54         2291.47 
       0.171974         2459.47         2157.57 
       0.178125         2344.99          2059.7 
       0.184229         2251.71         1982.62 
        0.19034         2138.28         1909.21 
       0.196428         2093.01         1828.23 
       0.202534         2010.32         1734.86 
       0.208729         1921.15          1630.7 
       0.214876         1840.52         1525.69 
       0.220989         1777.27         1428.19 
       0.227147          1705.1         1343.29 
        0.23329         1635.49         1274.33 
       0.239377         1611.27            1220 
       0.245482         1512.94         1175.32 
       0.251667         1508.44          1134.8 
       0.257832          1453.2         1094.39 
       0.263955         1404.02         1051.52 
       0.270079         1356.23         1005.52 
        0.27624         1340.53         957.601 
       0.282372         1285.38         910.881 
        0.28843         1279.47         868.034 
       0.294538          1216.5         829.758 
       0.300721         1207.96         796.401 
        0.30691          1164.5         767.642 
       0.313033         1142.47           742.3 
       0.319153         1121.12         718.415 
       0.325316         1086.55          694.53 
        0.33145         1062.91         670.255 
       0.337538            1045          645.69 
       0.343633         1022.28         621.169 
       0.349808         988.324         597.156 
       0.355968         981.012         574.754 
       0.362074         971.887         554.425 
       0.368217         941.583         535.939 
       0.374374         907.882         519.042 
       0.380519         908.891          503.34 
       0.386598         883.692         488.484 
       0.392688         880.613         473.867 
        0.39888         854.822         459.136 
       0.405048         845.739         444.612 
       0.411186         834.179         430.444 
       0.417313         815.162         416.835 
       0.423458         802.232         403.897 
       0.429607         791.715         391.733 
       0.435692         775.953         380.485 
       0.441815         769.816         369.847 
       0.447964         753.332         359.679 
       0.454126         747.361         349.869 
       0.460267         728.841         340.375 
       0.466387         719.944         331.115 
        0.47254          715.44         322.007 
       0.478662         707.463         313.207 
       0.484765         687.386         304.751 
       0.490885          683.12         296.618 
       0.497035         668.495         288.808 
       0.503198         664.587         281.355 
       0.509342         657.657         274.264 
       0.515458         653.636          267.48 
       0.521598         637.318         260.891 
       0.527764         626.143         254.467 
       0.533884         624.273         248.275 
           0.54         617.277         242.265 
       0.546137         612.014         236.408 
       0.552299         604.225         230.711 
       0.558452         599.015         225.219 
       0.564573         591.782         219.957 
       0.570708         584.263         214.881 
       0.576825         568.869         210.003 
       0.582926          570.64         205.296 
       0.589034         565.738         200.725 
       0.595184         560.515         196.255 
       0.601379         552.629         191.882 
       0.607522         543.905         187.673 
       0.613639         543.728         183.606 
       0.619772         531.543          179.65 
       0.625918         528.827         175.806 
       0.632068         521.675         172.074 
       0.638161         519.231         168.487 
         0.6443         510.473         164.979 
       0.650464         508.193         161.562 
       0.656582         503.817          158.27 
       0.662703         501.776          155.07 
       0.668861         493.332         151.942 
       0.675024         489.192         148.898 
       0.681124          485.41         145.968 
       0.687237         481.397          143.11 
       0.693381         475.357         140.315 
       0.699536         466.951          137.59 
       0.705665         465.948         134.949 
       0.711789         463.701          132.38 
       0.717957          459.04         129.862 
        0.72409         456.446         127.424 
       0.730186         449.679         125.065 
       0.736317          445.98         122.753 
       0.742472         444.106         120.492 
       0.748622         439.039         118.291 
        0.75476         432.545         116.151 
       0.760888         428.543         114.067 
       0.767043         428.043         112.026 
       0.773185         423.696          110.04 
       0.779291          418.63         108.114 
       0.785407         416.396         106.232 
       0.791564          411.16         104.382 
       0.797719         409.325         102.578 
       0.803834         404.762         100.829 
       0.809972         402.712         99.1141 
       0.816124         401.816         97.4359 
       0.822261         396.166         95.8014 
       0.828378         394.232         94.2095 
       0.834502         389.364         92.6528 
       0.840667         385.852         91.1215 
       0.846816         383.954         89.6294 
       0.852925         381.078         88.1804 
       0.859047         378.411         86.7607 
       0.865192         374.097         85.3678 
       0.871341          370.78         84.0049 
       0.877463         369.735         82.6781 
       0.883569         366.229         81.3835 
       0.889708          363.67         80.1103 
       0.895864         362.138         78.8612 
       0.902008         358.277         77.6415 
       0.908149         353.946         76.4486 
       0.914301         351.618          75.279 
       0.920448         349.485         74.1352 
       0.926574         344.053         73.0193 
       0.932687          344.07         71.9289 
       0.938823         340.597          70.857 
       0.944975         339.387         69.8047 
       0.951105         335.441         68.7777 
       0.957225         333.572         67.7732 
       0.963368         329.723         66.7855 
       0.969511          328.67         65.8176 
       0.975621         325.478         64.8743 
       0.981748         324.343         63.9471 
       0.987916         322.381         63.0323 
        0.99406         316.716         62.1389 
        1.00019         315.214         61.2647 
        1.00632         313.654         60.4083 
        1.01246         310.939         59.5671 
        1.01859         311.026         58.7434 
        1.02471         306.054         57.9364 
        1.03085         304.988         57.1418 
        1.03698         303.173          56.364 
        1.04314         299.727         55.5974 
        1.04929         296.851          54.847 
        1.05541         297.272         54.1135 
        1.06154         292.212         53.3918 
        1.06769         291.203         52.6821 
        1.07382         289.058         51.9878 
        1.07993         287.016         51.3076 
        1.08607         285.779         50.6368 
        1.09222         283.313         49.9774 
        1.09836         281.173         49.3306 
        1.10449         278.593          48.696 
        1.11063         275.326          48.072 
        1.11677         275.251         47.4592 
         1.1229         273.146         46.8581 
        1.12903         270.743         46.2671 
        1.13518         268.427         45.6857 
        1.14131         266.664         45.1148 
        1.14745         265.206          44.554 
        1.15359         263.218         44.0027 
        1.15973         261.856         43.4605 
        1.16584         259.003         42.9299 
        1.17197         259.256         42.4075 
        1.17811         255.301         41.8922 
        1.18424         253.911         41.3871 
        1.19038         252.969         40.8888 
        1.19652         250.371          40.399 
        1.20267         249.387         39.9172 
        1.20881         247.562         39.4434 
        1.21495         245.362         38.9781 
        1.22108         243.831         38.5204 
         1.2272         242.082         38.0711 
        1.23334         240.479         37.6281 
        1.23949         238.466          37.191 
        1.24562          237.63         36.7622 
        1.25174         235.397         36.3407 
        1.25789         233.576         35.9247 
        1.26402         231.518         35.5159 
        1.27014         230.042         35.1146 
        1.27628         228.699         34.7182 
        1.28244         228.424         34.3273 
        1.28858         225.759         33.9429 
        1.29471         224.243         33.5653 
        1.30084          222.32         33.1939 
        1.30697         221.091         32.8275 
        1.31312         218.897         32.4661 
        1.31925          217.73         32.1114 
        1.32537         216.738         31.7623 
        1.33151         215.094         31.4172 
        1.33765         212.815         31.0774 
        1.34378         211.839         30.7434 
        1.34992         210.658          30.414 
        1.35606         209.747         30.0888 
         1.3622         207.906         29.7689 
        1.36833         206.087         29.4545 
        1.37445         205.135         29.1447 
        1.38059         202.983         28.8385 
        1.38675         201.975          28.536 
        1.39288         200.792          28.239 
        1.39901         199.973         27.9464 
        1.40515         197.984         27.6573 
         1.4113         196.804         27.3724 
        1.41742         195.104         27.0926 
        1.42355         193.785         26.8163 
         1.4297         192.337          26.543 
        1.43585         191.446         26.2736 
        1.44198         190.437          26.009 
        1.44809         188.851         25.7485 
        1.45423         187.808         25.4907 
        1.46036         186.653         25.2369 
        1.46649          184.83         24.9864 
        1.47263         183.953         24.7392 
        1.47877         182.263         24.4954 
        1.48491         180.752         24.2546 
        1.49104         180.112         24.0175 
        1.49718          178.33         23.7834 
        1.50333         177.693          23.552 
        1.50947         176.523         23.3243 
         1.5156         174.913         23.0998 
        1.52172          173.81         22.8784 
        1.52787         172.233         22.6594 
          1.534         171.999         22.4435 
        1.54013         170.425         22.2307 
        1.54627         169.434         22.0202 
        1.55241         167.825         21.8125 
        1.55855          166.48         21.6077 
        1.56467           165.6         21.4062 
         1.5708         164.809         21.2066 
        1.57695         163.585         21.0093 
        1.58308         162.242          20.815 
        1.58922         161.328          20.623 
        1.59535         159.865         20.4335 
         1.6015         159.694         20.2461 
        1.60764         157.952         20.0612 
        1.61376         157.461         19.8791 
        1.61989          156.05         19.6992 
        1.62604          154.69          19.521 
        1.63218         154.315         19.3452 
        1.63831         152.892          19.172 
        1.64444         151.936         19.0008 
        1.65059         150.934         18.8313 
        1.65673         149.952         18.6641 
        1.66285         148.715         18.4994 
        1.66898         147.857         18.3366 
        1.67512         147.153         18.1754 
        1.68127         145.572         18.0161 
         1.6874         144.891          17.859 
        1.69353         143.894         17.7039 
        1.69967         142.683         17.5503 
        1.70581             142         17.3985 
        1.71193         141.058         17.2492 
        1.71806          140.34         17.1012 
        1.72421          139.07         16.9548 
        1.73035         138.493         16.8102 
        1.73649         137.584         16.6673 
        1.74262         136.637         16.5262 
        1.74876         135.725         16.3866 
        1.75489          134.58          16.249 
        1.76101         133.303         16.1129 
        1.76715         133.024         15.9783 
        1.77329         131.982          15.845 
        1.77943         131.253         15.7132 
        1.78557         130.411         15.5831 
        1.79171         129.657         15.4545 
        1.79785         128.509         15.3272 
        1.80399         127.635         15.2015 
        1.81012         126.971         15.0773 
        1.81625         126.477         14.9546 
        1.82239         125.484          14.833 
        1.82853          124.63         14.7129 
        1.83466         123.841         14.5942 
        1.84078         123.226          14.477 
        1.84692          121.75         14.3609 
        1.85306         121.414         14.2458 
         1.8592         120.443         14.1323 
        1.86533         119.898           14.02 
        1.87147         118.912         13.9089 
        1.87761         117.954         13.7989 
        1.88375         117.191         13.6902 
        1.88988         116.405         13.5828 
        1.89601         115.755         13.4765 
        1.90215         115.143         13.3712 
        1.90829         114.151         13.2672 
        1.91442         113.557         13.1642 
        1.92056         112.881         13.0624 
         1.9267         112.166         12.9616 
        1.93284         111.145         12.8618 
        1.93897         110.686         12.7632 
        1.94509         110.043         12.6659 
        1.95123         109.299         12.5693 
        1.95737         108.731         12.4737 
        1.96349         107.933         12.3794 
        1.96964         107.053         12.2857 
        1.97578         106.524          12.193 
        1.98192         105.807         12.1014 
        1.98805         105.047         12.0107 
        1.99419         104.362          11.921 
        2.00033         103.888         11.8321 
        2.00647         103.267         11.7442 
         2.0126         102.369         11.6573 
        2.01874         101.755         11.5712 
        2.02488          101.18         11.4859 
        2.03101          100.38         11.4016 
        2.03714         99.8381         11.3182 
        2.04328         99.0757         11.2355 
        2.04941         98.5503         11.1538 
        2.05554         97.7322         11.0729 
        2.06167         97.3683         10.9927 
        2.06781         96.6467         10.9133 
        2.07396         96.1347         10.8346 
        2.08009         95.5977         10.7568 
        2.08622         94.8745         10.6798 
        2.09237         94.2592         10.6035 
        2.09851         93.7831         10.5279 
        2.10464         93.1266         10.4531 
        2.11077         92.5802         10.3792 
        2.11691         92.2087         10.3058 
        2.12305          91.374         10.2331 
        2.12918         90.7825         10.1613 
        2.13531         90.2004         10.0902 
        2.14145         89.6348         10.0196 
         2.1476         88.9422         9.94959 
        2.15372         88.5623          9.8806 
        2.15985         88.0819          9.8122 
        2.16599         87.4362         9.74424 
        2.17213          86.873         9.67701 
        2.17827          86.372         9.61043 
         2.1844         85.6556         9.54453 
        2.19054         85.2638         9.47923 
        2.19666         84.7916         9.41463 
         2.2028         84.2567         9.35058 
        2.20893         83.7914         9.28709 
        2.21508         83.1918         9.22412 
        2.22122         82.5784         9.16172 
        2.22736           82.22         9.10002 
        2.23349         81.8852         9.03891 
        2.23962         81.2433         8.97833 
        2.24577         80.7508         8.91825 
         2.2519         80.2457         8.85881 
        2.25802          79.633             8.8 
        2.26417         79.3907         8.74157 
        2.27031         78.6657         8.68361 
        2.27644         78.3007         8.62635 
        2.28257         77.7165         8.56961 
        2.28872         77.3707         8.51327 
        2.29486         76.9632         8.45746 
        2.30099         76.4255         8.40226 
        2.30712         76.0026         8.34752 
        2.31326         75.4792         8.29319 
         2.3194         75.0454         8.23937 
        2.32553         74.7116         8.18611 
        2.33166         74.1862         8.13336 
         2.3378         73.7233         8.08099 
        2.34394         73.2659         8.02907 
        2.35007         72.8312         7.97768 
        2.35619         72.4842         7.92681 
        2.36233         72.0356         7.87626 
        2.36848          71.651         7.82604 
        2.37462         71.3183         7.77637 
        2.38075         70.6351         7.72717 
        2.38689          70.435         7.67836 
        2.39303         69.8985         7.62999 
        2.39916         69.5502         7.58207 
        2.40529         69.2585         7.53458 
        2.41143         68.8035         7.48745 
        2.41757         68.4297         7.44071 
         2.4237         68.1608         7.39445 
        2.42983         67.6897         7.34859 
        2.43598         67.1969           7.303 
        2.44211         67.0092         7.25787 
        2.44823         66.6417         7.21322 
        2.45437         66.0554         7.16882 
        2.46052         65.7327         7.12477 
        2.46665         65.4844         7.08116 
        2.47279         64.9388         7.03793 
        2.47892         64.7094         6.99503 
        2.48507         64.3165         6.95246 
         2.4912         63.9354         6.91031 
