# k  (h/Mpc)    P(k)  (Mpc/h)^3    P_linear(k)  (Mpc/h)^3
     0.00783031         138.651         139.429 
       0.013688         171.117         171.601 
       0.019231         173.095         172.979 
      0.0249154         159.108         159.071 
      0.0312784         137.358         136.928 
      0.0375637         116.651         116.114 
      0.0433917         101.346          100.95 
      0.0492413         90.5848         90.1281 
      0.0555754         82.4306         82.2199 
      0.0619321         76.8042         76.4031 
       0.067871         71.4923         71.3384 
      0.0738098         65.8668         65.7438 
      0.0800417         59.2625         59.1495 
      0.0862327         52.5329         52.3495 
      0.0921407         46.5217          46.312 
      0.0982031          41.295         41.1352 
       0.104506         37.3544         37.1011 
       0.110769         34.5686         34.3452 
       0.116806         32.6519         32.5246 
       0.122832         31.2547         31.0928 
       0.129052          29.702          29.611 
       0.135211         27.9671         27.8874 
       0.141259          26.032          25.909 
       0.147318           23.94         23.7775 
       0.153489         21.8145         21.6716 
       0.159709         19.9521         19.8197 
       0.165845         18.5624         18.3692 
       0.171974         17.4107         17.2959 
       0.178125         16.6353         16.5114 
       0.184229         16.0258         15.8935 
        0.19034         15.3806         15.3051 
       0.196428         14.7587          14.656 
       0.202534         14.0531         13.9075 
       0.208729         13.1869         13.0726 
       0.214876         12.3159         12.2308 
       0.220989         11.5868         11.4491 
       0.227147         10.8546         10.7686 
        0.23329         10.3034         10.2158 
       0.239377         9.87302          9.7803 
       0.245482         9.49702         9.42215 
       0.251667         9.19805         9.09729 
       0.257832         8.85771         8.77336 
       0.263955         8.52186         8.42967 
       0.270079         8.15547         8.06092 
        0.27624         7.78836          7.6768 
       0.282372          7.4113         7.30227 
        0.28843         7.04961         6.95879 
       0.294538         6.74456         6.65196 
       0.300721         6.48941         6.38455 
        0.30691         6.24475         6.15399 
       0.313033         6.03733         5.95083 
       0.319153         5.81624         5.75937 
       0.325316         5.66539         5.56789 
        0.33145          5.4631         5.37327 
       0.337538         5.26221         5.17635 
       0.343633         5.05866         4.97978 
       0.349808         4.87257         4.78726 
       0.355968         4.69407         4.60769 
       0.362074         4.52578         4.44471 
       0.368217         4.37826         4.29652 
       0.374374         4.22728         4.16106 
       0.380519         4.11317         4.03518 
       0.386598         3.99674         3.91608 
       0.392688         3.88555         3.79891 
        0.39888         3.76068         3.68081 
       0.405048         3.64543         3.56437 
       0.411186         3.53388          3.4508 
       0.417313         3.41661         3.34168 
       0.423458         3.31972         3.23798 
       0.429607         3.21307         3.14045 
       0.435692         3.12264         3.05029 
       0.441815         3.03687           2.965 
       0.447964         2.96244         2.88349 
       0.454126         2.87528         2.80485 
       0.460267         2.79566         2.72873 
       0.466387         2.71801          2.6545 
        0.47254          2.6471         2.58148 
       0.478662         2.58073         2.51093 
       0.484765         2.50664         2.44314 
       0.490885         2.44411         2.37794 
       0.497035          2.3904         2.31533 
       0.503198         2.32314         2.25559 
       0.509342         2.27039         2.19873 
       0.515458         2.20985         2.14435 
       0.521598         2.15861         2.09153 
       0.527764          2.1009         2.04003 
       0.533884         2.05834         1.99039 
           0.54         2.00914         1.94221 
       0.546137         1.96346         1.89525 
       0.552299         1.91508         1.84958 
       0.558452         1.86558         1.80555 
       0.564573         1.82738         1.76336 
       0.570708         1.78569         1.72268 
       0.576825         1.74456         1.68356 
       0.582926         1.71148         1.64583 
       0.589034          1.6645         1.60919 
       0.595184         1.63003         1.57335 
       0.601379         1.59592          1.5383 
       0.607522         1.56576         1.50455 
       0.613639         1.53714         1.47195 
       0.619772         1.49771         1.44023 
       0.625918         1.46994         1.40941 
       0.632068          1.4415          1.3795 
       0.638161         1.40897         1.35074 
         0.6443          1.3799         1.32262 
       0.650464         1.34937         1.29523 
       0.656582         1.32503         1.26883 
       0.662703         1.30019         1.24318 
       0.668861         1.27715          1.2181 
       0.675024         1.25054          1.1937 
       0.681124         1.22314         1.17021 
       0.687237         1.20367          1.1473 
       0.693381         1.18131         1.12489 
       0.699536           1.154         1.10304 
       0.705665         1.13369         1.08187 
       0.711789         1.11581         1.06128 
       0.717957         1.09179         1.04109 
        0.72409         1.07413         1.02154 
       0.730186         1.05341         1.00263 
       0.736317         1.03879        0.984099 
       0.742472         1.01906        0.965975 
       0.748622         1.00056         0.94833 
        0.75476        0.979464         0.93117 
       0.760888        0.963609        0.914464 
       0.767043        0.950953        0.898105 
       0.773185         0.93225        0.882183 
       0.779291        0.916424         0.86674 
       0.785407         0.90182        0.851647 
       0.791564        0.886884        0.836822 
       0.797719        0.872941         0.82236 
       0.803834        0.858893        0.808334 
       0.809972         0.84441        0.794588 
       0.816124        0.829333        0.781134 
       0.822261        0.814766         0.76803 
       0.828378        0.803508        0.755269 
       0.834502        0.792117        0.742789 
       0.840667        0.777571        0.730512 
       0.846816        0.766188         0.71855 
       0.852925        0.756223        0.706934 
       0.859047        0.744167        0.695552 
       0.865192        0.730747        0.684386 
       0.871341        0.720039        0.673459 
       0.877463         0.71124        0.662822 
       0.883569        0.698981        0.652444 
       0.889708        0.688098        0.642236 
       0.895864        0.677879        0.632223 
       0.902008        0.667503        0.622445 
       0.908149        0.657593        0.612881 
       0.914301        0.645867        0.603505 
       0.920448        0.637676        0.594335 
       0.926574        0.628277        0.585389 
       0.932687        0.619209        0.576647 
       0.938823        0.612998        0.568054 
       0.944975        0.603117        0.559618 
       0.951105        0.595559        0.551384 
       0.957225        0.588377        0.543332 
       0.963368         0.57937        0.535414 
       0.969511        0.570283        0.527654 
       0.975621         0.56221        0.520091 
       0.981748        0.556944        0.512658 
       0.987916        0.548704        0.505324 
        0.99406        0.540478        0.498162 
        1.00019        0.534799        0.491154 
        1.00632        0.526092        0.484288 
        1.01246        0.518834        0.477544 
        1.01859        0.512983         0.47094 
        1.02471        0.506155        0.464471 
        1.03085        0.500727        0.458101 
        1.03698        0.493236        0.451865 
        1.04314        0.487291         0.44572 
        1.04929        0.480386        0.439704 
        1.05541        0.475249        0.433823 
        1.06154        0.468546        0.428037 
        1.06769        0.462364        0.422348 
        1.07382        0.456836        0.416782 
        1.07993        0.450719        0.411328 
        1.08607        0.446969        0.405951 
        1.09222        0.440439        0.400665 
        1.09836        0.436777        0.395479 
        1.10449         0.43091        0.390392 
        1.11063        0.424364        0.385389 
        1.11677        0.418853        0.380476 
         1.1229        0.414929        0.375658 
        1.12903        0.409617        0.370919 
        1.13518         0.40579        0.366259 
        1.14131        0.400286        0.361681 
        1.14745        0.394339        0.357185 
        1.15359        0.390916        0.352766 
        1.15973        0.385347        0.348419 
        1.16584        0.382548        0.344166 
        1.17197        0.377697        0.339977 
        1.17811        0.373971        0.335847 
        1.18424        0.370646        0.331797 
        1.19038        0.365254        0.327802 
        1.19652        0.360657        0.323875 
        1.20267        0.358369        0.320013 
        1.20881        0.353562        0.316215 
        1.21495        0.350675        0.312484 
        1.22108        0.346311        0.308815 
         1.2272        0.343194        0.305213 
        1.23334        0.338889        0.301661 
        1.23949         0.33531        0.298157 
        1.24562        0.331695        0.294719 
        1.25174        0.328864        0.291341 
        1.25789        0.325623        0.288005 
        1.26402        0.321368        0.284728 
        1.27014        0.318575         0.28151 
        1.27628        0.315707        0.278333 
        1.28244        0.311404        0.275199 
        1.28858        0.308742        0.272118 
        1.29471        0.306455         0.26909 
        1.30084        0.302308        0.266112 
        1.30697        0.299821        0.263175 
        1.31312        0.295599        0.260278 
        1.31925        0.293558        0.257434 
        1.32537        0.291047        0.254636 
        1.33151        0.288367        0.251869 
        1.33765        0.285718        0.249145 
        1.34378        0.282484        0.246467 
        1.34992         0.28016        0.243827 
        1.35606         0.27722        0.241219 
         1.3622        0.274876        0.238655 
        1.36833        0.272287        0.236134 
        1.37445        0.268904        0.233651 
        1.38059        0.266896        0.231196 
        1.38675        0.265365         0.22877 
        1.39288        0.262685         0.22639 
        1.39901         0.26019        0.224044 
        1.40515        0.258271        0.221726 
         1.4113        0.255327        0.219442 
        1.41742        0.253359        0.217199 
        1.42355        0.251623        0.214984 
         1.4297        0.249059        0.212793 
        1.43585         0.24685        0.210633 
        1.44198        0.245425        0.208512 
        1.44809        0.243058        0.206424 
        1.45423        0.240949        0.204357 
        1.46036        0.238829        0.202322 
        1.46649        0.237775        0.200314 
        1.47263        0.235225        0.198332 
        1.47877        0.232956        0.196378 
        1.48491        0.231535        0.194447 
        1.49104        0.229274        0.192546 
        1.49718        0.227556         0.19067 
        1.50333         0.22627        0.188815 
        1.50947        0.224412        0.186989 
         1.5156        0.222435         0.18519 
        1.52172        0.220954        0.183414 
        1.52787         0.21908        0.181658 
          1.534        0.217522        0.179928 
        1.54013        0.215941        0.178221 
        1.54627        0.215083        0.176534 
        1.55241        0.212746        0.174869 
        1.55855          0.2109        0.173227 
        1.56467        0.210432        0.171611 
         1.5708        0.208277        0.170012 
        1.57695        0.205873         0.16843 
        1.58308        0.204602        0.166872 
        1.58922        0.203117        0.165333 
        1.59535        0.201509        0.163814 
         1.6015        0.200324        0.162312 
        1.60764        0.199078        0.160829 
        1.61376        0.197124        0.159369 
        1.61989         0.19632        0.157927 
        1.62604        0.195497        0.156498 
        1.63218        0.194336        0.155089 
        1.63831        0.192968          0.1537 
        1.64444        0.192119        0.152328 
        1.65059         0.19079        0.150969 
        1.65673        0.189953        0.149628 
        1.66285        0.189612        0.148308 
        1.66898        0.188375        0.147003 
        1.67512        0.187468        0.145711 
        1.68127        0.186672        0.144434 
         1.6874        0.186161        0.143174 
        1.69353        0.185022        0.141931 
        1.69967         0.18515        0.140699 
        1.70581        0.184083        0.139483 
        1.71193        0.183452        0.138285 
        1.71806        0.182829        0.137099 
        1.72421         0.18319        0.135925 
        1.73035        0.182812        0.134766 
        1.73649        0.182152         0.13362 
        1.74262        0.182074        0.132489 
        1.74876        0.181921         0.13137 
        1.75489        0.181749        0.130267 
        1.76101        0.181797        0.129176 
        1.76715        0.181448        0.128097 
        1.77329        0.181676        0.127028 
        1.77943        0.181171        0.125972 
        1.78557        0.181936        0.124929 
        1.79171        0.182138        0.123897 
        1.79785        0.182718        0.122877 
        1.80399        0.182785        0.121869 
        1.81012        0.183392        0.120874 
        1.81625        0.183798         0.11989 
        1.82239        0.184049        0.118915 
        1.82853        0.184733        0.117952 
        1.83466         0.18499        0.117001 
        1.84078        0.185934        0.116061 
        1.84692        0.186049         0.11513 
        1.85306        0.187736        0.114208 
         1.8592        0.188612        0.113297 
        1.86533        0.189682        0.112397 
        1.87147        0.190234        0.111506 
        1.87761        0.191695        0.110624 
        1.88375         0.19244        0.109753 
        1.88988        0.193847        0.108892 
        1.89601        0.195513         0.10804 
        1.90215        0.196079        0.107196 
        1.90829        0.197542        0.106362 
        1.91442        0.199781        0.105536 
        1.92056        0.201587         0.10472 
         1.9267        0.202976        0.103912 
        1.93284        0.204276        0.103112 
        1.93897        0.206357        0.102322 
        1.94509        0.208696        0.101541 
        1.95123        0.209724        0.100767 
        1.95737        0.212536        0.100001 
        1.96349        0.215407       0.0992443 
        1.96964        0.216903       0.0984934 
        1.97578        0.218981         0.09775 
        1.98192        0.221925       0.0970157 
        1.98805        0.224656        0.096289 
        1.99419         0.22676       0.0955696 
        2.00033        0.230242       0.0948573 
        2.00647        0.232793       0.0941524 
         2.0126        0.235765       0.0934559 
        2.01874        0.238722       0.0927654 
        2.02488        0.240566       0.0920813 
        2.03101         0.24528       0.0914054 
        2.03714        0.248717       0.0907369 
        2.04328        0.251772       0.0900744 
        2.04941        0.255492        0.089419 
        2.05554        0.259787       0.0887707 
        2.06167        0.262899       0.0881279 
        2.06781        0.266936       0.0874914 
        2.07396        0.269894       0.0868603 
        2.08009        0.275203       0.0862365 
        2.08622        0.279479       0.0856195 
        2.09237        0.283042       0.0850074 
        2.09851        0.289074       0.0844012 
        2.10464        0.292937       0.0838019 
        2.11077        0.296889       0.0832092 
        2.11691        0.304004       0.0826208 
        2.12305        0.308728       0.0820382 
        2.12918        0.312954       0.0814625 
        2.13531        0.319754       0.0808924 
        2.14145        0.324222       0.0803264 
         2.1476        0.330606       0.0797651 
        2.15372        0.335711        0.079212 
        2.15985        0.341002       0.0786636 
        2.16599          0.3478       0.0781188 
        2.17213        0.356317       0.0775798 
        2.17827        0.361575        0.077046 
         2.1844        0.368776       0.0765177 
        2.19054         0.37725       0.0759942 
        2.19666        0.384183       0.0754763 
         2.2028        0.390766       0.0749628 
        2.20893        0.399025       0.0744539 
        2.21508        0.405746       0.0739491 
        2.22122        0.417101       0.0734488 
        2.22736         0.42206       0.0729542 
        2.23349        0.432025       0.0724642 
        2.23962        0.439591       0.0719786 
        2.24577        0.449683       0.0714969 
         2.2519        0.460195       0.0710204 
        2.25802        0.469123       0.0705489 
        2.26417        0.478958       0.0700805 
        2.27031        0.488857       0.0696158 
        2.27644        0.498188       0.0691568 
        2.28257        0.508954       0.0687019 
        2.28872        0.519503       0.0682503 
        2.29486        0.532158       0.0678028 
        2.30099        0.546653       0.0673602 
        2.30712        0.557937       0.0669215 
        2.31326        0.571626       0.0664858 
         2.3194        0.585562       0.0660544 
        2.32553        0.595314       0.0656275 
        2.33166        0.609541       0.0652045 
         2.3378        0.624305       0.0647847 
        2.34394        0.641069       0.0643685 
        2.35007        0.651043       0.0639565 
        2.35619         0.67138       0.0635486 
        2.36233        0.685621       0.0631433 
        2.36848        0.701625       0.0627408 
        2.37462        0.716468       0.0623425 
        2.38075        0.736469       0.0619482 
        2.38689        0.753111       0.0615569 
        2.39303        0.769357        0.061169 
        2.39916        0.789415       0.0607849 
        2.40529        0.811834       0.0604041 
        2.41143        0.826241       0.0600263 
        2.41757        0.851665       0.0596516 
         2.4237        0.876355       0.0592807 
        2.42983        0.890078       0.0589131 
        2.43598        0.913109       0.0585476 
        2.44211        0.938826       0.0581858 
        2.44823         0.95692       0.0578278 
        2.45437        0.986695       0.0574719 
        2.46052         1.01228       0.0571187 
        2.46665         1.03899       0.0567691 
        2.47279         1.06281       0.0564225 
        2.47892         1.09034       0.0560786 
        2.48507         1.12179       0.0557373 
         2.4912         1.14723       0.0553995 
