#  k  (h/Mpc)          P(k)  (Mpc/h)^3     P_linear(k) (Mpc/h)^3
     0.00783031         11494.8         11579.6 
       0.013688         14279.9         14231.1 
       0.019231         14311.4         14331.5 
      0.0249154         12960.9         13171.7 
      0.0312784         11239.2         11333.5 
      0.0375637         9592.25         9608.26 
      0.0433917         8217.32         8352.01 
      0.0492413         7419.14         7455.74 
      0.0555754          6606.1         6800.86 
      0.0619321         6329.99         6319.25 
       0.067871         5748.13         5900.03 
      0.0738098          5301.3         5437.09 
      0.0800417         4733.04         4891.55 
      0.0862327         4254.01         4329.07 
      0.0921407         3824.11         3829.71 
      0.0982031         3383.23         3401.54 
       0.104506         3152.01          3067.9 
       0.110769         2921.76         2839.97 
       0.116806         2746.03          2689.4 
       0.122832         2625.87         2570.99 
       0.129052         2453.09         2448.43 
       0.135211         2326.32          2305.9 
       0.141259         2207.36          2142.3 
       0.147318         2062.52         1966.04 
       0.153489         1878.02          1791.9 
       0.159709          1758.4         1638.77 
       0.165845         1680.33         1518.83 
       0.171974         1580.75         1430.07 
       0.178125         1510.62         1365.21 
       0.184229         1456.76         1314.12 
        0.19034         1372.11         1265.46 
       0.196428         1346.55         1211.79 
       0.202534         1296.88          1149.9 
       0.208729         1231.39         1080.86 
       0.214876         1167.39         1011.26 
       0.220989         1125.39         946.633 
       0.227147         1070.76         890.363 
        0.23329         1025.71         844.657 
       0.239377         1005.89         808.644 
       0.245482         940.968         779.031 
       0.251667         936.645          752.17 
       0.257832         904.966         725.388 
       0.263955         873.769         696.971 
       0.270079         842.165          666.48 
        0.27624         832.156         634.722 
       0.282372         796.539         603.755 
        0.28843         782.579         575.355 
       0.294538         743.442         549.985 
       0.300721         738.551         527.875 
        0.30691         706.883         508.813 
       0.313033         694.505         492.015 
       0.319153         674.692         476.184 
       0.325316         655.232         460.352 
        0.33145         637.543         444.263 
       0.337538          629.96          427.98 
       0.343633         610.835         411.727 
       0.349808         590.067         395.811 
       0.355968         585.737         380.962 
       0.362074         575.637         367.488 
       0.368217         560.159         355.234 
       0.374374         537.534         344.035 
       0.380519         535.094         333.627 
       0.386598         521.929          323.78 
       0.392688         519.307         314.092 
        0.39888         503.969         304.328 
       0.405048         495.145         294.701 
       0.411186         486.705          285.31 
       0.417313         476.559         276.289 
       0.423458         469.404         267.714 
       0.429607         460.381         259.651 
       0.435692          449.38         252.196 
       0.441815         446.388         245.144 
       0.447964         437.055         238.405 
       0.454126         426.372         231.903 
       0.460267         419.965          225.61 
       0.466387         414.915         219.472 
        0.47254         406.737         213.435 
       0.478662         405.539         207.602 
       0.484765          392.62         201.997 
       0.490885         389.026         196.606 
       0.497035         382.016          191.43 
       0.503198         376.175          186.49 
       0.509342         373.555          181.79 
       0.515458          368.86         177.293 
       0.521598         361.441         172.926 
       0.527764         355.023         168.668 
       0.533884         352.934         164.564 
           0.54         347.635          160.58 
       0.546137         346.455         156.698 
       0.552299         339.407         152.922 
       0.558452         337.072         149.281 
       0.564573          331.79         145.794 
       0.570708         326.075         142.429 
       0.576825         320.043         139.196 
       0.582926         317.845         136.076 
       0.589034         315.166         133.046 
       0.595184         312.191         130.083 
       0.601379         308.158         127.185 
       0.607522         303.124         124.395 
       0.613639         301.574         121.699 
       0.619772         294.422         119.077 
       0.625918          293.44         116.529 
       0.632068         288.992         114.055 
       0.638161         287.592         111.678 
         0.6443         282.809         109.353 
       0.650464         280.276         107.088 
       0.656582         278.531         104.906 
       0.662703          276.67         102.785 
       0.668861         271.479         100.711 
       0.675024         268.684         98.6937 
       0.681124         267.302         96.7516 
       0.687237         264.141         94.8574 
       0.693381         260.212         93.0048 
       0.699536         257.795         91.1984 
       0.705665          256.13         89.4479 
       0.711789         253.214         87.7453 
       0.717957         251.894          86.076 
        0.72409         248.876         84.4602 
       0.730186         246.232         82.8963 
       0.736317         243.581         81.3642 
       0.742472         242.305         79.8658 
       0.748622         240.115         78.4069 
        0.75476         237.882         76.9881 
       0.760888         234.778         75.6069 
       0.767043         234.412         74.2543 
       0.773185         231.559         72.9379 
       0.779291         227.482         71.6611 
       0.785407         227.048         70.4133 
       0.791564         224.703         69.1875 
       0.797719         221.844         67.9918 
       0.803834         220.809         66.8322 
       0.809972          219.03         65.6956 
       0.816124         219.035         64.5833 
       0.822261         215.747         63.4999 
       0.828378         213.935         62.4448 
       0.834502         213.168         61.4129 
       0.840667         209.848         60.3979 
       0.846816         208.305         59.4089 
       0.852925         207.244         58.4485 
       0.859047         205.417         57.5075 
       0.865192         203.535         56.5842 
       0.871341         201.656         55.6808 
       0.877463         199.883         54.8014 
       0.883569          199.06         53.9433 
       0.889708         197.146         53.0994 
       0.895864         194.857         52.2714 
       0.902008         193.934          51.463 
       0.908149         192.982         50.6723 
       0.914301         190.658         49.8971 
       0.920448         189.123         49.1389 
       0.926574         187.856         48.3992 
       0.932687         187.654         47.6765 
       0.938823         185.255          46.966 
       0.944975         183.434         46.2685 
       0.951105         182.527         45.5878 
       0.957225         180.943          44.922 
       0.963368         178.855         44.2674 
       0.969511           178.4         43.6258 
       0.975621         176.607         43.0005 
       0.981748         176.421         42.3859 
       0.987916         174.479         41.7796 
        0.99406          172.74         41.1874 
        1.00019         172.563          40.608 
        1.00632         170.698         40.0404 
        1.01246          169.66         39.4828 
        1.01859          168.87         38.9368 
        1.02471         167.164         38.4019 
        1.03085         165.133         37.8752 
        1.03698         164.664         37.3597 
        1.04314         163.126         36.8516 
        1.04929         162.112         36.3542 
        1.05541         161.348          35.868 
        1.06154         160.069         35.3896 
        1.06769         159.921         34.9192 
        1.07382         158.537          34.459 
        1.07993         157.028         34.0081 
        1.08607         156.029         33.5635 
        1.09222         155.206         33.1265 
        1.09836         153.786         32.6977 
        1.10449         152.228         32.2771 
        1.11063         151.004         31.8635 
        1.11677          150.76         31.4573 
         1.1229         149.167         31.0589 
        1.12903         148.301         30.6671 
        1.13518         147.719         30.2818 
        1.14131         146.528         29.9034 
        1.14745         145.703         29.5317 
        1.15359         144.752         29.1662 
        1.15973         144.195         28.8069 
        1.16584         142.437         28.4552 
        1.17197         141.713         28.1089 
        1.17811         140.892         27.7674 
        1.18424         139.962         27.4325 
        1.19038         139.604         27.1023 
        1.19652         138.423         26.7776 
        1.20267         137.647         26.4583 
        1.20881          136.59         26.1442 
        1.21495         135.738         25.8358 
        1.22108         134.899         25.5324 
         1.2272         133.797         25.2346 
        1.23334         133.013          24.941 
        1.23949         132.082         24.6513 
        1.24562         131.332          24.367 
        1.25174         129.879         24.0877 
        1.25789         129.483         23.8119 
        1.26402         128.584          23.541 
        1.27014         127.462         23.2749 
        1.27628         127.049         23.0122 
        1.28244         126.535         22.7531 
        1.28858         125.781         22.4983 
        1.29471          124.31         22.2481 
        1.30084         124.068         22.0018 
        1.30697         123.099          21.759 
        1.31312         122.598         21.5195 
        1.31925         121.567         21.2844 
        1.32537         120.974          21.053 
        1.33151         119.774         20.8242 
        1.33765         119.416          20.599 
        1.34378          118.75         20.3776 
        1.34992         118.141         20.1593 
        1.35606         117.369         19.9437 
         1.3622         116.438         19.7317 
        1.36833         115.751         19.5233 
        1.37445         114.998          19.318 
        1.38059         114.456          19.115 
        1.38675         113.629         18.9144 
        1.39288         113.115         18.7176 
        1.39901         112.674         18.5237 
        1.40515         111.896          18.332 
         1.4113         110.828         18.1432 
        1.41742         110.452         17.9578 
        1.42355         109.632         17.7746 
         1.4297         109.143         17.5934 
        1.43585          108.23         17.4149 
        1.44198         107.737         17.2395 
        1.44809          107.06         17.0669 
        1.45423         106.421          16.896 
        1.46036         105.965         16.7277 
        1.46649         105.287         16.5617 
        1.47263         104.824         16.3979 
        1.47877         104.263         16.2363 
        1.48491         103.266         16.0766 
        1.49104         102.798         15.9195 
        1.49718         102.002         15.7643 
        1.50333         101.546          15.611 
        1.50947         101.142           15.46 
         1.5156         100.435         15.3112 
        1.52172         99.7954         15.1644 
        1.52787         99.4955         15.0193 
          1.534         98.7245         14.8762 
        1.54013         97.9504         14.7351 
        1.54627         97.6501         14.5956 
        1.55241         97.0496         14.4579 
        1.55855          96.384         14.3222 
        1.56467          96.067         14.1886 
         1.5708         95.4094         14.0563 
        1.57695         95.1744         13.9256 
        1.58308         94.2123         13.7968 
        1.58922          94.102         13.6695 
        1.59535         93.4628         13.5439 
         1.6015          92.834         13.4197 
        1.60764         92.3283         13.2971 
        1.61376         92.0603         13.1765 
        1.61989         91.2015         13.0572 
        1.62604          90.889         12.9391 
        1.63218         90.4299         12.8226 
        1.63831         89.6653         12.7077 
        1.64444         89.2415         12.5943 
        1.65059         88.8497         12.4819 
        1.65673         88.1114         12.3711 
        1.66285         87.8871         12.2619 
        1.66898         87.2913          12.154 
        1.67512         86.9665         12.0472 
        1.68127         86.2903         11.9416 
         1.6874         85.7893         11.8375 
        1.69353         85.3492         11.7347 
        1.69967           84.68         11.6328 
        1.70581         84.6089         11.5323 
        1.71193         84.1795         11.4333 
        1.71806         83.4253         11.3352 
        1.72421         83.1507         11.2381 
        1.73035         82.4563         11.1423 
        1.73649         82.1361         11.0476 
        1.74262         81.5857          10.954 
        1.74876         81.3858         10.8615 
        1.75489         80.5082         10.7703 
        1.76101         80.3234         10.6801 
        1.76715         79.7758         10.5909 
        1.77329         79.4678         10.5025 
        1.77943         79.0031         10.4152 
        1.78557         78.6834         10.3289 
        1.79171          78.012         10.2437 
        1.79785         77.7633         10.1593 
        1.80399         77.3712          10.076 
        1.81012         76.8739         9.99367 
        1.81625         76.4341         9.91232 
        1.82239         76.1703         9.83176 
        1.82853         75.7912         9.75214 
        1.83466         75.3069         9.67347 
        1.84078         75.0397         9.59576 
        1.84692         74.4467         9.51879 
        1.85306         73.9488         9.44256 
         1.8592         73.6093         9.36729 
        1.86533          73.294         9.29288 
        1.87147         72.6518          9.2192 
        1.87761         72.4445         9.14629 
        1.88375         72.0753         9.07425 
        1.88988         71.7489         9.00306 
        1.89601         71.2868          8.9326 
        1.90215         70.9145         8.86284 
        1.90829         70.5313         8.79386 
        1.91442         70.1057         8.72561 
        1.92056         69.6915         8.65814 
         1.9267         69.4783         8.59132 
        1.93284         68.9294         8.52516 
        1.93897         68.4529         8.45983 
        1.94509         68.2072         8.39532 
        1.95123         67.9176         8.33132 
        1.95737         67.5749         8.26795 
        1.96349         67.0581         8.20539 
        1.96964         66.7509         8.14331 
        1.97578         66.3946         8.08184 
        1.98192          66.187         8.02114 
        1.98805         65.7785         7.96105 
        1.99419         65.3116         7.90157 
        2.00033         65.0413         7.84268 
        2.00647         64.8185          7.7844 
         2.0126         64.1798         7.72682 
        2.01874         63.8576         7.66973 
        2.02488         63.5473         7.61317 
        2.03101         63.3733         7.55728 
        2.03714         62.8913         7.50201 
        2.04328         62.5396         7.44723 
        2.04941         62.1825         7.39305 
        2.05554         61.9111         7.33944 
        2.06167         61.5618          7.2863 
        2.06781         61.2363         7.23367 
        2.07396         60.9236         7.18149 
        2.08009         60.6085         7.12992 
        2.08622         60.2638         7.07891 
        2.09237         59.8797          7.0283 
        2.09851         59.7175         6.97818 
        2.10464         59.2991         6.92863 
        2.11077          58.934         6.87963 
        2.11691         58.7005         6.83099 
        2.12305         58.3501         6.78281 
        2.12918         58.0293         6.73522 
        2.13531         57.6241         6.68808 
        2.14145         57.4589         6.64128 
         2.1476         57.1893         6.59488 
        2.15372         56.8999         6.54915 
        2.15985         56.5181         6.50381 
        2.16599         56.1892         6.45877 
        2.17213         55.9653          6.4142 
        2.17827           55.55         6.37007 
         2.1844         55.2298         6.32639 
        2.19054         55.0845          6.2831 
        2.19666         54.7252         6.24029 
         2.2028         54.5328         6.19783 
        2.20893          54.195         6.15575 
        2.21508         53.8161         6.11401 
        2.22122         53.5912         6.07265 
        2.22736          53.397         6.03176 
        2.23349         52.9714         5.99125 
        2.23962          52.734          5.9511 
        2.24577         52.4363         5.91128 
         2.2519         52.1797         5.87187 
        2.25802         51.9075          5.8329 
        2.26417         51.5705         5.79416 
        2.27031         51.3432         5.75575 
        2.27644         51.2271         5.71779 
        2.28257         50.8123         5.68019 
        2.28872           50.55         5.64284 
        2.29486         50.2605         5.60585 
        2.30099         50.0828         5.56926 
        2.30712         49.7554         5.53298 
        2.31326         49.5259         5.49696 
         2.3194          49.238         5.46129 
        2.32553         48.8584         5.42599 
        2.33166         48.6555         5.39102 
         2.3378         48.3993         5.35632 
        2.34394         48.1573          5.3219 
        2.35007         47.8029         5.28784 
        2.35619         47.7062         5.25412 
        2.36233         47.4452         5.22061 
        2.36848         47.1333         5.18732 
        2.37462         46.9488          5.1544 
        2.38075         46.6967         5.12179 
        2.38689         46.3874         5.08944 
        2.39303         46.2197         5.05738 
        2.39916         46.0018         5.02562 
        2.40529         45.7149         4.99413 
        2.41143         45.4199          4.9629 
        2.41757          45.191         4.93192 
         2.4237         45.0132         4.90125 
        2.42983         44.7468         4.87086 
        2.43598         44.5023         4.84064 
        2.44211         44.3228         4.81072 
        2.44823         43.9186         4.78113 
        2.45437         43.8121          4.7517 
        2.46052         43.5268          4.7225 
        2.46665         43.3799          4.6936 
        2.47279         43.1415         4.66494 
        2.47892         42.9279         4.63651 
        2.48507         42.6375         4.60829 
         2.4912         42.5044         4.58035 
