#  k  (h/Mpc)          P(k)  (Mpc/h)^3     P_linear(k) (Mpc/h)^3
     0.00783031          7159.5         7203.61 
       0.013688         8864.43         8855.29 
       0.019231         8906.42         8918.99 
      0.0249154         8103.34         8198.02 
      0.0312784         7020.67         7054.48 
      0.0375637         5982.46          5980.9 
      0.0433917         5144.25          5199.1 
      0.0492413         4636.28          4641.3 
      0.0555754         4149.01         4233.72 
      0.0619321         3954.64         3933.97 
       0.067871         3611.03         3673.04 
      0.0738098         3329.97         3384.87 
      0.0800417         2979.73         3045.27 
      0.0862327         2669.68         2695.11 
      0.0921407         2387.46         2384.24 
      0.0982031         2111.32         2117.69 
       0.104506          1954.5         1909.98 
       0.110769         1811.77         1768.09 
       0.116806         1700.29         1674.35 
       0.122832         1630.53         1600.64 
       0.129052         1529.02         1524.34 
       0.135211         1447.88          1435.6 
       0.141259         1367.33         1333.75 
       0.147318         1272.66         1224.02 
       0.153489         1157.82         1115.61 
       0.159709         1077.56         1020.27 
       0.165845         1023.74         945.597 
       0.171974         958.455         890.342 
       0.178125         918.421         849.956 
       0.184229         887.405         818.151 
        0.19034         834.867          787.86 
       0.196428         818.451         754.444 
       0.202534         788.709         715.914 
       0.208729         745.052         672.932 
       0.214876         700.958           629.6 
       0.220989         673.356         589.362 
       0.227147         635.712         554.329 
        0.23329         608.234         525.873 
       0.239377         593.835         503.452 
       0.245482         555.965         485.016 
       0.251667         551.613         468.293 
       0.257832         534.889         451.618 
       0.263955         515.157         433.927 
       0.270079          496.08         414.943 
        0.27624         487.758         395.171 
       0.282372         466.902         375.891 
        0.28843         452.586          358.21 
       0.294538         431.902         342.415 
       0.300721         426.758         328.649 
        0.30691         407.262         316.782 
       0.313033         399.501         306.324 
       0.319153         384.693         296.467 
       0.325316         375.151         286.611 
        0.33145         363.243         276.594 
       0.337538         358.888         266.456 
       0.343633         346.686         256.337 
       0.349808         335.534         246.428 
       0.355968          330.95         237.184 
       0.362074         322.382         228.794 
       0.368217         314.416         221.166 
       0.374374         303.471         214.193 
       0.380519         299.298         207.713 
       0.386598          292.05         201.583 
       0.392688         288.584         195.551 
        0.39888         281.099         189.472 
       0.405048         275.038         183.478 
       0.411186         269.166         177.632 
       0.417313         263.548         172.015 
       0.423458         259.175         166.676 
       0.429607         253.177         161.657 
       0.435692         245.678         157.015 
       0.441815           244.2         152.625 
       0.447964         239.792         148.429 
       0.454126         230.286         144.381 
       0.460267         228.007         140.463 
       0.466387          225.08         136.642 
        0.47254         220.278         132.883 
       0.478662         218.893         129.252 
       0.484765         212.303         125.762 
       0.490885         209.373         122.406 
       0.497035         206.755         119.183 
       0.503198         201.394         116.107 
       0.509342         199.092         113.181 
       0.515458         196.128         110.381 
       0.521598         193.461         107.662 
       0.527764         190.421         105.011 
       0.533884         187.843         102.456 
           0.54          184.85         99.9757 
       0.546137         183.759         97.5588 
       0.552299         180.424         95.2079 
       0.558452         177.451         92.9413 
       0.564573          174.46         90.7699 
       0.570708         171.773         88.6754 
       0.576825         169.492          86.662 
       0.582926          166.86         84.7199 
       0.589034         164.676         82.8337 
       0.595184         162.886         80.9888 
       0.601379         161.048         79.1843 
       0.607522          157.67         77.4473 
       0.613639         156.893         75.7689 
       0.619772         153.528         74.1365 
       0.625918         152.139         72.5499 
       0.632068         150.378           71.01 
       0.638161         149.065         69.5296 
         0.6443         146.993         68.0822 
       0.650464         145.562         66.6721 
       0.656582          143.65         65.3134 
       0.662703         141.595         63.9929 
       0.668861         139.609          62.702 
       0.675024          138.18         61.4459 
       0.681124         137.164         60.2368 
       0.687237         134.725         59.0575 
       0.693381         132.962         57.9041 
       0.699536          131.98         56.7794 
       0.705665         132.148         55.6896 
       0.711789         128.822         54.6296 
       0.717957         128.311         53.5903 
        0.72409         126.494         52.5843 
       0.730186          124.51         51.6106 
       0.736317         124.071         50.6567 
       0.742472         123.067         49.7238 
       0.748622         121.814         48.8156 
        0.75476         120.699         47.9322 
       0.760888         119.043         47.0723 
       0.767043         118.045         46.2302 
       0.773185         116.752         45.4106 
       0.779291         115.501         44.6157 
       0.785407         114.596         43.8388 
       0.791564         113.523         43.0756 
       0.797719         111.813         42.3312 
       0.803834         111.403         41.6092 
       0.809972         109.805         40.9016 
       0.816124         109.365         40.2091 
       0.822261         108.296         39.5345 
       0.828378          107.28         38.8776 
       0.834502         106.529         38.2352 
       0.840667         105.373         37.6033 
       0.846816         104.166         36.9876 
       0.852925         103.272         36.3896 
       0.859047         102.146         35.8037 
       0.865192         101.668         35.2289 
       0.871341         100.786         34.6665 
       0.877463          99.495         34.1189 
       0.883569         98.7193         33.5847 
       0.889708         98.1465         33.0593 
       0.895864         97.3367         32.5438 
       0.902008         96.4296         32.0405 
       0.908149         95.9046         31.5482 
       0.914301         94.9208         31.0655 
       0.920448          94.205         30.5935 
       0.926574         93.4486          30.133 
       0.932687         93.1459          29.683 
       0.938823         91.7304         29.2407 
       0.944975         91.0362         28.8064 
       0.951105         90.3568         28.3826 
       0.957225         89.3192         27.9681 
       0.963368         88.8664         27.5605 
       0.969511         88.5023         27.1611 
       0.975621         87.9736         26.7718 
       0.981748         86.9976         26.3892 
       0.987916         86.5081         26.0117 
        0.99406         85.7735          25.643 
        1.00019         84.9836         25.2823 
        1.00632         84.4139         24.9288 
        1.01246         83.7355         24.5817 
        1.01859         82.7426         24.2418 
        1.02471         82.9299         23.9087 
        1.03085          81.956         23.5808 
        1.03698         81.3043         23.2598 
        1.04314         80.5662         22.9435 
        1.04929         80.0983         22.6338 
        1.05541         79.3371         22.3311 
        1.06154         79.1511         22.0333 
        1.06769         78.5583         21.7404 
        1.07382         78.2337         21.4539 
        1.07993         77.7406         21.1732 
        1.08607         76.9513         20.8964 
        1.09222         76.6361         20.6243 
        1.09836         75.9542         20.3574 
        1.10449         75.4066         20.0955 
        1.11063         74.9361          19.838 
        1.11677         74.3523         19.5851 
         1.1229         73.8281          19.337 
        1.12903         72.9016         19.0931 
        1.13518         73.0308         18.8532 
        1.14131         72.6075         18.6176 
        1.14745         71.7631         18.3862 
        1.15359         71.5331         18.1587 
        1.15973          70.968         17.9349 
        1.16584         70.4597          17.716 
        1.17197         70.0633         17.5004 
        1.17811         69.6782         17.2878 
        1.18424         68.9426         17.0793 
        1.19038         68.6751         16.8737 
        1.19652         68.4166         16.6715 
        1.20267         67.8486         16.4727 
        1.20881         67.5966         16.2772 
        1.21495         66.9862         16.0852 
        1.22108         66.5375         15.8963 
         1.2272         65.8963         15.7109 
        1.23334         65.7347         15.5281 
        1.23949          65.379         15.3477 
        1.24562         65.0297         15.1707 
        1.25174         64.7352         14.9968 
        1.25789          64.328         14.8251 
        1.26402         63.7309         14.6564 
        1.27014         63.2472         14.4908 
        1.27628         62.9705         14.3273 
        1.28244         62.6245         14.1659 
        1.28858         62.2963         14.0073 
        1.29471         61.9059         13.8515 
        1.30084         61.6393         13.6982 
        1.30697         61.1909          13.547 
        1.31312         60.7811         13.3979 
        1.31925          60.704         13.2515 
        1.32537         60.2891         13.1074 
        1.33151         59.8646          12.965 
        1.33765         59.5528         12.8248 
        1.34378         59.1044         12.6869 
        1.34992          58.707          12.551 
        1.35606         58.4831         12.4168 
         1.3622         58.1475         12.2848 
        1.36833          57.892          12.155 
        1.37445         57.6891         12.0272 
        1.38059         57.1867         11.9008 
        1.38675         56.9022          11.776 
        1.39288         56.5625         11.6534 
        1.39901         56.3278         11.5327 
        1.40515         56.1348         11.4134 
         1.4113         55.7862         11.2958 
        1.41742         55.4977         11.1804 
        1.42355         55.1536         11.0663 
         1.4297         54.7763         10.9535 
        1.43585         54.5915         10.8424 
        1.44198         54.3497         10.7332 
        1.44809         54.1142         10.6257 
        1.45423         53.8989         10.5193 
        1.46036         53.6654         10.4146 
        1.46649         53.2994         10.3112 
        1.47263          53.015         10.2092 
        1.47877          52.835         10.1086 
        1.48491          52.493         10.0092 
        1.49104         52.1991         9.91135 
        1.49718         51.8379         9.81475 
        1.50333         51.7613         9.71928 
        1.50947         51.4906         9.62528 
         1.5156         51.1527         9.53266 
        1.52172         51.0212         9.44127 
        1.52787         50.8645         9.35089 
          1.534         50.5927         9.26181 
        1.54013         50.2683         9.17398 
        1.54627          50.044         9.08714 
        1.55241         49.7966         9.00141 
        1.55855         49.4633         8.91691 
        1.56467         49.1888         8.83373 
         1.5708         49.1944         8.75138 
        1.57695         48.8981         8.66996 
        1.58308         48.7128         8.58977 
        1.58922          48.687         8.51054 
        1.59535         48.3844         8.43234 
         1.6015         48.0147         8.35502 
        1.60764         47.8391         8.27871 
        1.61376         47.6275         8.20356 
        1.61989         47.2806         8.12929 
        1.62604         47.2321         8.05578 
        1.63218         47.0431         7.98323 
        1.63831         46.8025         7.91174 
        1.64444         46.5814          7.8411 
        1.65059         46.3605         7.77116 
        1.65673          46.149         7.70215 
        1.66285         45.9607         7.63417 
        1.66898         45.6972           7.567 
        1.67512         45.5766          7.5005 
        1.68127         45.3318         7.43474 
         1.6874         45.2571         7.36992 
        1.69353         44.9847         7.30592 
        1.69967         44.7576         7.24252 
        1.70581         44.8024          7.1799 
        1.71193         44.4901         7.11826 
        1.71806         44.2236         7.05721 
        1.72421         44.0958         6.99676 
        1.73035         43.8671         6.93709 
        1.73649         43.6659         6.87813 
        1.74262         43.5563          6.8199 
        1.74876         43.4524         6.76231 
        1.75489         43.2115          6.7055 
        1.76101         43.0956         6.64937 
        1.76715         42.9166          6.5938 
        1.77329         42.7375          6.5388 
        1.77943          42.518         6.48441 
        1.78557         42.3733         6.43072 
        1.79171          42.245         6.37763 
        1.79785         42.1092         6.32513 
        1.80399         41.9256         6.27323 
        1.81012         41.8704         6.22199 
        1.81625         41.4076         6.17134 
        1.82239         41.4602         6.12118 
        1.82853         41.1744         6.07161 
        1.83466         41.0107         6.02263 
        1.84078         40.8997         5.97425 
        1.84692         40.7051         5.92633 
        1.85306         40.5815         5.87887 
         1.8592         40.4667           5.832 
        1.86533         40.1991         5.78568 
        1.87147         40.1837         5.73981 
        1.87761         40.1162         5.69441 
        1.88375         39.8176         5.64956 
        1.88988         39.8157         5.60524 
        1.89601         39.5636         5.56137 
        1.90215          39.406         5.51794 
        1.90829         39.3664         5.47499 
        1.91442         39.1151          5.4325 
        1.92056         39.0407         5.39049 
         1.9267         38.8521         5.34889 
        1.93284         38.6448          5.3077 
        1.93897         38.5875         5.26703 
        1.94509         38.4245         5.22686 
        1.95123            38.3         5.18702 
        1.95737         38.1231         5.14756 
        1.96349         38.0611         5.10862 
        1.96964         37.8468         5.06997 
        1.97578         37.7643          5.0317 
        1.98192         37.6211          4.9939 
        1.98805         37.5678         4.95649 
        1.99419          37.305         4.91946 
        2.00033         37.1707         4.88279 
        2.00647          37.096         4.84651 
         2.0126         36.9787         4.81066 
        2.01874         36.8751         4.77512 
        2.02488         36.7906          4.7399 
        2.03101         36.5955         4.70511 
        2.03714         36.4403          4.6707 
        2.04328         36.2311         4.63659 
        2.04941         36.1878         4.60286 
        2.05554         36.0031         4.56948 
        2.06167         35.9902          4.5364 
        2.06781         35.7701         4.50363 
        2.07396         35.6205         4.47115 
        2.08009         35.5942         4.43904 
        2.08622         35.4747         4.40728 
        2.09237         35.3035         4.37577 
        2.09851          35.122         4.34457 
        2.10464         35.1057         4.31372 
        2.11077         34.8489         4.28321 
        2.11691         34.8185         4.25292 
        2.12305         34.6118         4.22293 
        2.12918         34.6373          4.1933 
        2.13531         34.4386         4.16395 
        2.14145         34.3889         4.13481 
         2.1476         34.1516         4.10592 
        2.15372         34.0819         4.07745 
        2.15985          33.944         4.04922 
        2.16599         33.8622         4.02118 
        2.17213          33.725         3.99344 
        2.17827         33.5359         3.96596 
         2.1844         33.4217         3.93876 
        2.19054         33.3306         3.91182 
        2.19666         33.2632         3.88516 
         2.2028         33.1252         3.85872 
        2.20893         33.0404         3.83253 
        2.21508         32.9306         3.80654 
        2.22122         32.7579         3.78079 
        2.22736         32.6528         3.75533 
        2.23349          32.507         3.73011 
        2.23962         32.4117         3.70511 
        2.24577         32.2786         3.68032 
         2.2519         32.2248         3.65579 
        2.25802         32.0837         3.63152 
        2.26417         31.9652          3.6074 
        2.27031         31.9102         3.58349 
        2.27644         31.7623         3.55986 
        2.28257         31.5921         3.53644 
        2.28872         31.5146         3.51319 
        2.29486           31.36         3.49016 
        2.30099         31.2772         3.46738 
        2.30712         31.2052         3.44479 
        2.31326          31.131         3.42237 
         2.3194         30.9748         3.40016 
        2.32553         30.7845         3.37818 
        2.33166         30.6966         3.35641 
         2.3378         30.5869          3.3348 
        2.34394         30.3921         3.31338 
        2.35007         30.3391         3.29217 
        2.35619         30.2843         3.27118 
        2.36233         30.2034         3.25031 
        2.36848         30.0264         3.22959 
        2.37462         29.9205         3.20909 
        2.38075          29.816         3.18879 
        2.38689          29.738         3.16865 
        2.39303          29.579         3.14869 
        2.39916         29.4662         3.12891 
        2.40529         29.3513         3.10931 
        2.41143         29.3161         3.08986 
        2.41757         29.1055         3.07058 
         2.4237         29.0968         3.05149 
        2.42983          28.895         3.03256 
        2.43598         28.8299         3.01375 
        2.44211         28.7417         2.99512 
        2.44823         28.6112          2.9767 
        2.45437         28.5353         2.95838 
        2.46052         28.4176          2.9402 
        2.46665         28.3255          2.9222 
        2.47279         28.1887         2.90436 
        2.47892         28.0663         2.88666 
        2.48507         28.0138         2.86909 
         2.4912         27.9075          2.8517 
